time,lead_I
9989.3,-1633.4566857142822
9991.3,-2043.3208571428527
9993.3,-2448.185028571423
9995.3,-2842.7634857142793
9997.3,-2811.6206285714225
9999.3,-2804.6206285714225
10001.28,-2816.9063428571367
10003.25,-2821.9063428571367
10005.22,-2799.4777714285647
10007.2,-2766.049199999993
10009.2,-2757.334914285708
10011.2,-2773.3349142857082
10013.2,-2774.6206285714225
10015.2,-2738.9063428571367
10017.2,-2689.9063428571367
10019.2,-2660.4777714285656
10021.2,-2654.6206285714225
10023.2,-2650.3349142857082
10025.2,-2625.192057142851
10027.2,-2578.049199999994
10029.2,-2532.3349142857082
10031.2,-2508.477771428565
10033.2,-2494.906342857137
10035.2,-2456.049199999994
10037.2,-2375.76348571428
10039.2,-2287.9063428571367
10041.2,-2245.192057142851
10043.2,-2252.049199999994
10045.2,-2257.6206285714225
10047.2,-2232.192057142851
10049.2,-2214.3349142857082
10051.2,-2255.192057142851
10053.2,-2342.4777714285656
10055.2,-2413.4777714285656
10057.2,-2435.3349142857082
10059.2,-2444.3349142857082
10061.2,-2491.3349142857082
10063.2,-2566.76348571428
10065.2,-2610.6206285714225
10067.2,-2595.192057142851
10069.2,-2558.334914285708
10071.2,-2544.477771428565
10073.2,-2551.6206285714225
10075.2,-2550.7634857142793
10077.2,-2530.192057142851
10079.2,-2506.6206285714225
10081.17,-2506.049199999994
10083.15,-2538.3349142857082
10085.13,-2585.6206285714225
10087.1,-2616.049199999994
10089.1,-2613.7634857142793
10091.1,-2594.4777714285656
10093.1,-2588.620628571422
10095.1,-2606.192057142851
10097.1,-2619.906342857137
10099.1,-2599.7634857142793
10101.1,-2561.477771428565
10103.1,-2554.049199999994
10105.1,-2594.4777714285656
10107.1,-2644.3349142857087
10109.1,-2660.192057142851
10111.1,-2647.9063428571367
10113.1,-2650.9063428571367
10115.1,-2692.6206285714225
10117.1,-2744.3349142857082
10119.1,-2760.620628571422
10121.1,-2733.9063428571367
10123.1,-2690.6206285714225
10125.1,-2637.192057142851
10127.1,-2536.334914285708
10129.1,-2341.049199999994
10131.1,-2039.7634857142796
10133.1,-1666.334914285708
10135.1,-1269.192057142851
10137.1,-873.192057142851
10139.1,-479.1920571428511
10141.1,-105.90634285713693
10143.1,182.37937142857737
10145.1,308.8079428571488
10147.1,245.6650857142917
10149.1,31.950800000005927
10151.1,-277.04919999999396
10153.1,-663.9063428571369
10155.1,-1129.049199999994
10157.1,-1623.4777714285653
10159.1,-2046.049199999994
10161.08,-2326.7634857142793
10163.05,-2480.334914285708
10165.03,-2558.6206285714225
10167.0,-2587.049199999994
10169.0,-2564.192057142851
10171.0,-2493.9063428571367
10173.0,-2397.7634857142793
10175.0,-2312.049199999994
10177.0,-2270.6206285714225
10179.0,-2269.192057142851
10181.0,-2261.6206285714225
10183.0,-2222.049199999994
10185.0,-2187.192057142851
10187.0,-2202.477771428565
10189.0,-2249.9063428571367
10191.0,-2269.7634857142793
10193.0,-2244.192057142851
10195.0,-2214.6206285714225
10197.0,-2216.3349142857082
10199.0,-2236.6206285714225
10201.0,-2245.9063428571367
10203.0,-2235.3349142857082
10205.0,-2217.7634857142793
10207.0,-2210.9063428571367
10209.0,-2222.049199999994
10211.0,-2235.477771428565
10213.0,-2224.76348571428
10215.0,-2188.3349142857082
10217.0,-2157.76348571428
10219.0,-2159.1920571428514
10221.0,-2183.906342857137
10223.0,-2202.192057142851
10225.0,-2195.76348571428
10227.0,-2177.477771428565
10229.0,-2176.477771428565
10231.0,-2197.9063428571367
10233.0,-2207.192057142851
10235.0,-2169.9063428571367
10237.0,-2097.192057142851
10239.0,-2036.0491999999938
10240.97,-2015.3349142857082
10242.95,-2014.0491999999938
10244.92,-1989.192057142851
10246.9,-1935.7634857142796
10248.9,-1899.7634857142796
10250.9,-1916.049199999994
10252.9,-1952.7634857142796
10254.9,-1949.9063428571367
10256.9,-1901.7634857142798
10258.9,-1860.3349142857082
10260.9,-1859.7634857142796
10262.9,-1879.192057142851
10264.9,-1880.192057142851
10266.9,-1849.049199999994
10268.9,-1806.6206285714222
10270.9,-1789.7634857142793
10272.9,-1805.4777714285651
10274.9,-1812.3349142857082
10276.9,-1780.1920571428511
10278.9,-1742.6206285714225
10280.9,-1743.049199999994
10282.9,-1769.3349142857082
10284.9,-1786.906342857137
10286.9,-1789.906342857137
10288.9,-1780.9063428571367
10290.9,-1750.4777714285653
10292.9,-1707.6206285714225
10294.9,-1685.3349142857082
10296.9,-1688.7634857142798
10298.9,-1680.1920571428511
10300.9,-1641.3349142857082
10302.9,-1609.9063428571367
10304.9,-1616.049199999994
10306.9,-1629.6206285714225
10308.9,-1613.906342857137
10310.9,-1579.6206285714225
10312.9,-1547.4777714285653
10314.9,-1516.0491999999938
10316.9,-1487.7634857142793
10318.9,-1468.4777714285653
10320.88,-1440.6206285714227
10322.85,-1393.4777714285656
10324.83,-1358.7634857142796
10326.8,-1362.6206285714225
10328.8,-1377.3349142857082
10330.8,-1363.049199999994
10332.8,-1325.4777714285653
10334.8,-1297.3349142857082
10336.8,-1288.9063428571367
10338.8,-1279.7634857142796
10340.8,-1247.6206285714225
10342.8,-1189.4777714285653
10344.8,-1124.1920571428511
10346.8,-1077.9063428571367
10348.8,-1057.906342857137
10350.8,-1040.9063428571367
10352.8,-1002.1920571428511
10354.8,-950.1920571428511
10356.8,-917.049199999994
10358.8,-916.3349142857082
10360.8,-926.3349142857082
10362.8,-915.4777714285655
10364.8,-879.1920571428511
10366.8,-846.4777714285655
10368.8,-845.9063428571369
10370.8,-867.0491999999941
10372.8,-872.9063428571369
10374.8,-849.6206285714226
10376.8,-827.3349142857082
10378.8,-840.049199999994
10380.8,-879.1920571428511
10382.8,-901.3349142857082
10384.8,-885.3349142857082
10386.8,-860.9063428571368
10388.8,-868.3349142857082
10390.8,-903.049199999994
10392.8,-927.1920571428511
10394.8,-921.4777714285653
10396.8,-903.4777714285655
10398.8,-900.3349142857082
10400.78,-922.049199999994
10402.75,-954.7634857142797
10404.72,-974.192057142851
10406.7,-973.6206285714225
10408.7,-975.7634857142796
10410.7,-1007.4777714285653
10412.7,-1065.192057142851
10414.7,-1113.3349142857082
10416.7,-1122.4777714285653
10418.7,-1109.7634857142796
10420.7,-1123.049199999994
10422.7,-1175.7634857142798
10424.7,-1224.4777714285653
10426.7,-1231.4777714285656
10428.7,-1220.0491999999942
10430.7,-1238.1920571428511
10432.7,-1293.3349142857082
10434.7,-1346.3349142857082
10436.7,-1363.6206285714225
10438.7,-1358.4777714285653
10440.7,-1374.906342857137
10442.7,-1430.906342857137
10444.7,-1494.3349142857082
10446.7,-1522.4777714285653
10448.7,-1511.4777714285653
10450.7,-1491.7634857142796
10452.7,-1487.0491999999938
10454.7,-1489.6206285714225
10456.7,-1472.1920571428511
10458.7,-1423.4777714285653
10460.7,-1370.906342857137
10462.7,-1352.4777714285653
10464.7,-1369.0491999999938
10466.7,-1383.7634857142796
10468.7,-1369.6206285714225
10470.7,-1338.9063428571367
10472.7,-1323.906342857137
10474.7,-1338.049199999994
10476.7,-1360.0491999999938
10478.7,-1356.4777714285651
10480.67,-1324.9063428571367
10482.65,-1304.049199999994
10484.63,-1326.3349142857082
10486.6,-1370.6206285714225
10488.6,-1383.6206285714227
10490.6,-1350.3349142857082
10492.6,-1317.4777714285656
10494.6,-1328.334914285708
10496.6,-1360.4777714285656
10498.6,-1362.1920571428511
10500.6,-1332.7634857142798
10502.6,-1323.334914285708
10504.6,-1360.0491999999938
10506.6,-1409.3349142857082
10508.6,-1429.6206285714225
10510.6,-1419.7634857142796
10512.6,-1405.7634857142798
10514.6,-1404.4777714285653
10516.6,-1411.1920571428511
10518.6,-1408.6206285714225
10520.6,-1387.192057142851
10522.6,-1359.9063428571367
10524.6,-1351.3349142857082
10526.6,-1366.906342857137
10528.6,-1384.9063428571367
10530.6,-1379.6206285714225
10532.6,-1352.6206285714225
10534.6,-1334.4777714285653
10536.6,-1347.6206285714225
10538.6,-1374.7634857142793
10540.6,-1383.7634857142793
10542.6,-1372.1920571428511
10544.6,-1366.0491999999942
10546.6,-1380.3349142857082
10548.6,-1401.906342857137
10550.6,-1405.7634857142796
10552.6,-1378.6206285714225
10554.6,-1338.049199999994
10556.6,-1324.1920571428511
10558.6,-1350.6206285714225
10560.58,-1375.1920571428511
10562.55,-1350.049199999994
10564.53,-1291.4777714285656
10566.5,-1261.334914285708
10568.5,-1279.0491999999938
10570.5,-1292.1920571428511
10572.5,-1254.049199999994
10574.5,-1196.192057142851
10576.5,-1186.7634857142796
10578.5,-1235.6206285714225
10580.5,-1286.7634857142796
10582.5,-1298.1920571428511
10584.5,-1286.4777714285653
10586.5,-1287.4777714285653
10588.5,-1308.7634857142798
10590.5,-1329.7634857142793
10592.5,-1327.7634857142796
10594.5,-1300.9063428571367
10596.5,-1273.3349142857082
10598.5,-1270.906342857137
10600.5,-1292.4777714285656
10602.5,-1313.334914285708
10604.5,-1317.3349142857082
10606.5,-1316.906342857137
10608.5,-1336.049199999994
10610.5,-1375.6206285714227
10612.5,-1405.4777714285653
10614.5,-1398.1920571428511
10616.5,-1363.6206285714227
10618.5,-1338.9063428571367
10620.5,-1345.192057142851
10622.5,-1365.3349142857085
10624.5,-1366.3349142857085
10626.5,-1341.4777714285653
10628.5,-1322.906342857137
10630.5,-1341.3349142857082
10632.5,-1376.6206285714227
10634.5,-1376.4777714285653
10636.5,-1330.0491999999938
10638.5,-1290.6206285714225
10640.47,-1305.192057142851
10642.45,-1350.1920571428511
10644.42,-1365.1920571428511
10646.4,-1333.049199999994
10648.4,-1295.1920571428511
10650.4,-1289.049199999994
10652.4,-1298.7634857142796
10654.4,-1283.6206285714225
10656.4,-1236.9063428571367
10658.4,-1192.9063428571367
10660.4,-1182.3349142857082
10662.4,-1200.049199999994
10664.4,-1212.1920571428511
10666.4,-1187.1920571428511
10668.4,-1126.1920571428511
10670.4,-1066.049199999994
10672.4,-1037.3349142857082
10674.4,-1026.049199999994
10676.4,-995.7634857142797
10678.4,-942.6206285714226
10680.4,-903.0491999999939
10682.4,-907.7634857142796
10684.4,-941.1920571428511
10686.4,-959.9063428571367
10688.4,-948.1920571428509
10690.4,-940.4777714285653
10692.4,-973.4777714285653
10694.4,-1031.3349142857082
10696.4,-1064.6206285714225
10698.4,-1056.6206285714225
10700.4,-1039.7634857142796
10702.4,-1047.3349142857082
10704.4,-1075.3349142857082
10706.4,-1095.6206285714225
10708.4,-1091.4777714285653
10710.4,-1076.6206285714225
10712.4,-1081.1920571428511
10714.4,-1115.906342857137
10716.4,-1158.7634857142798
10718.4,-1184.1920571428511
10720.38,-1195.906342857137
10722.35,-1219.1920571428514
10724.33,-1263.6206285714227
10726.3,-1306.6206285714225
10728.3,-1319.3349142857082
10730.3,-1300.4777714285656
10732.3,-1274.7634857142798
10734.3,-1265.7634857142796
10736.3,-1276.4777714285653
10738.3,-1290.192057142851
10740.3,-1291.4777714285653
10742.3,-1292.6206285714227
10744.3,-1325.7634857142796
10746.3,-1397.1920571428511
10748.3,-1470.049199999994
10750.3,-1507.192057142851
10752.3,-1516.3349142857082
10754.3,-1534.1920571428511
10756.3,-1570.6206285714225
10758.3,-1580.9063428571367
10760.3,-1504.6206285714225
10762.3,-1326.049199999994
10764.3,-1083.7634857142796
10766.3,-817.4777714285655
10768.3,-520.9063428571369
10770.3,-161.0491999999941
10772.3,255.95080000000598
10774.3,663.5222285714345
10776.3,986.5222285714345
10778.3,1192.2365142857202
10780.3,1282.2365142857202
10782.3,1258.379371428577
10784.3,1103.093657142863
10786.3,788.3793714285772
10788.3,326.8079428571487
10790.3,-186.62062857142251
10792.3,-639.3349142857082
10794.3,-994.4777714285653
10796.3,-1262.9063428571367
10798.3,-1426.906342857137
10800.28,-1467.3349142857082
10802.25,-1418.6206285714225
10804.22,-1333.7634857142796
10806.2,-1236.0491999999938
10808.2,-1145.1920571428511
10810.2,-1096.6206285714225
10812.2,-1102.4777714285653
10814.2,-1125.6206285714225
10816.2,-1126.049199999994
10818.2,-1111.1920571428511
10820.2,-1112.7634857142798
10822.2,-1131.1920571428511
10824.2,-1142.049199999994
10826.2,-1139.049199999994
10828.2,-1133.192057142851
10830.2,-1131.6206285714225
10832.2,-1143.9063428571367
10834.2,-1172.9063428571367
10836.2,-1193.1920571428511
10838.2,-1184.6206285714225
10840.2,-1173.049199999994
10842.2,-1190.6206285714227
10844.2,-1219.6206285714227
10846.2,-1222.049199999994
10848.2,-1198.7634857142798
10850.2,-1180.3349142857082
10852.2,-1180.192057142851
10854.2,-1185.7634857142798
10856.2,-1180.4777714285653
10858.2,-1157.1920571428511
10860.2,-1125.049199999994
10862.2,-1107.3349142857082
10864.2,-1116.4777714285653
10866.2,-1130.4777714285653
10868.2,-1114.3349142857082
10870.2,-1067.7634857142798
10872.2,-1032.6206285714225
10874.2,-1042.1920571428511
10876.2,-1077.1920571428511
10878.2,-1089.4777714285653
10880.17,-1068.906342857137
10882.15,-1058.049199999994
10884.13,-1087.6206285714225
10886.1,-1127.3349142857082
10888.1,-1129.4777714285653
10890.1,-1093.049199999994
10892.1,-1053.1920571428511
10894.1,-1030.7634857142796
10896.1,-1020.1920571428511
10898.1,-1005.3349142857082
10900.1,-975.7634857142797
10902.1,-939.1920571428511
10904.1,-919.049199999994
10906.1,-928.9063428571369
10908.1,-952.1920571428511
10910.1,-956.3349142857082
10912.1,-931.9063428571368
10914.1,-908.0491999999939
10916.1,-917.049199999994
10918.1,-946.9063428571369
10920.1,-956.0491999999939
10922.1,-931.6206285714226
10924.1,-904.9063428571368
10926.1,-906.3349142857082
10928.1,-927.6206285714225
10930.1,-932.4777714285653
10932.1,-899.4777714285653
10934.1,-851.049199999994
10936.1,-829.3349142857081
10938.1,-838.049199999994
10940.1,-832.4777714285655
10942.1,-780.6206285714227
10944.1,-709.9063428571369
10946.1,-671.4777714285653
10948.1,-673.7634857142797
10950.1,-676.1920571428511
10952.1,-644.9063428571368
10954.1,-592.0491999999939
10956.1,-557.4777714285653
10958.1,-561.4777714285653
10960.08,-582.1920571428511
10962.05,-581.4777714285653
10964.03,-552.049199999994
10966.0,-527.4777714285655
10968.0,-539.3349142857084
10970.0,-573.1920571428512
10972.0,-584.3349142857084
10974.0,-554.7634857142797
10976.0,-515.6206285714226
10978.0,-504.04919999999396
10980.0,-514.1920571428511
10982.0,-508.6206285714225
10984.0,-467.6206285714225
10986.0,-411.33491428570824
10988.0,-375.4777714285654
10990.0,-371.62062857142257
10992.0,-372.3349142857083
10994.0,-343.04919999999396
10996.0,-288.3349142857083
10998.0,-251.049199999994
11000.0,-255.76348571427968
11002.0,-274.1920571428511
11004.0,-259.90634285713685
11006.0,-206.7634857142797
11008.0,-158.90634285713685
11010.0,-158.76348571427968
11012.0,-191.76348571427968
11014.0,-201.76348571427974
11016.0,-166.90634285713685
11018.0,-134.19205714285116
11020.0,-153.19205714285113
11022.0,-204.19205714285113
11024.0,-227.049199999994
11026.0,-203.90634285713688
11028.0,-176.04919999999402
11030.0,-184.04919999999402
11032.0,-219.3349142857083
11034.0,-243.90634285713685
11036.0,-241.47777142856543
11038.0,-236.3349142857083
11039.97,-262.47777142856546
11041.95,-321.76348571427974
11043.92,-381.3349142857083
11045.9,-408.76348571427974
11047.9,-406.3349142857083
11049.9,-408.049199999994
11051.9,-440.90634285713685
11053.9,-490.7634857142797
11055.9,-520.049199999994
11057.9,-517.9063428571369
11059.9,-518.4777714285655
11061.9,-558.1920571428511
11063.9,-626.7634857142797
11065.9,-675.3349142857082
11067.9,-678.1920571428511
11069.9,-667.9063428571368
11071.9,-692.4777714285653
11073.9,-752.192057142851
11075.9,-802.7634857142797
11077.9,-814.9063428571369
11079.9,-807.9063428571369
11081.9,-821.6206285714226
11083.9,-867.192057142851
11085.9,-912.6206285714225
11087.9,-918.1920571428511
11089.9,-886.0491999999939
11091.9,-858.1920571428511
11093.9,-861.9063428571369
11095.9,-874.049199999994
11097.9,-857.1920571428511
11099.9,-817.192057142851
11101.9,-799.3349142857082
11103.9,-827.1920571428511
11105.9,-871.049199999994
11107.9,-889.1920571428511
11109.9,-878.9063428571368
11111.9,-869.049199999994
11113.9,-875.7634857142798
11115.9,-886.1920571428512
11117.8,-881.3349142857082
11119.8,-859.7634857142797
11121.8,-837.049199999994
11123.8,-831.7634857142796
11125.8,-850.049199999994
11127.8,-874.9063428571368
11129.8,-878.192057142851
11131.8,-853.7634857142796
11133.8,-833.1920571428509
11135.8,-850.0491999999938
11137.8,-890.1920571428511
11139.8,-904.3349142857082
11141.8,-879.192057142851
11143.8,-862.0491999999939
11145.8,-895.1920571428511
11147.8,-953.3349142857084
11149.8,-977.9063428571368
11151.8,-958.6206285714225
11153.8,-946.7634857142797
11155.8,-981.6206285714226
11157.8,-1035.7634857142798
11159.8,-1052.6206285714225
11161.8,-1023.3349142857082
11163.8,-995.4777714285653
11165.8,-1009.6206285714225
11167.8,-1051.1920571428511
11169.8,-1074.049199999994
11171.8,-1058.1920571428511
11173.8,-1033.0491999999938
11175.8,-1036.334914285708
11177.8,-1064.4777714285656
11179.8,-1081.7634857142798
11181.8,-1067.906342857137
11183.8,-1039.049199999994
11185.8,-1026.1920571428511
11187.8,-1045.4777714285653
11189.8,-1083.4777714285653
11191.8,-1108.4777714285656
11193.8,-1105.906342857137
11195.8,-1096.3349142857082
11197.8,-1106.7634857142796
11199.78,-1134.906342857137
11201.75,-1152.3349142857082
11203.72,-1136.906342857137
11205.7,-1100.3349142857082
11207.7,-1077.3349142857082
11209.7,-1081.1920571428511
11211.7,-1082.049199999994
11213.7,-1047.4777714285656
11215.7,-988.9063428571369
11217.7,-948.7634857142798
11219.7,-948.9063428571368
11221.7,-969.4777714285653
11223.7,-977.192057142851
11225.7,-969.0491999999939
11227.7,-976.192057142851
11229.7,-1016.7634857142797
11231.7,-1063.9063428571367
11233.7,-1083.049199999994
11235.7,-1079.7634857142796
11237.7,-1086.4777714285653
11239.7,-1114.7634857142798
11241.7,-1144.1920571428514
11243.7,-1152.7634857142796
11245.7,-1143.7634857142798
11247.7,-1137.6206285714225
11249.7,-1144.6206285714225
11251.7,-1155.049199999994
11253.7,-1157.6206285714225
11255.7,-1153.1920571428511
11257.7,-1148.4777714285653
11259.7,-1150.3349142857082
11261.7,-1167.3349142857082
11263.7,-1196.4777714285653
11265.7,-1214.049199999994
11267.7,-1204.0491999999938
11269.7,-1187.7634857142796
11271.7,-1199.3349142857082
11273.7,-1233.7634857142798
11275.7,-1246.7634857142798
11277.7,-1213.049199999994
11279.67,-1164.906342857137
11281.65,-1152.7634857142796
11283.63,-1179.334914285708
11285.6,-1195.1920571428511
11287.6,-1167.9063428571367
11289.6,-1129.3349142857082
11291.6,-1134.4777714285653
11293.6,-1178.4777714285653
11295.6,-1194.906342857137
11297.6,-1150.049199999994
11299.6,-1088.1920571428511
11301.6,-1053.049199999994
11303.6,-1026.4777714285653
11305.6,-981.049199999994
11307.6,-933.7634857142797
11309.6,-905.6206285714226
11311.6,-886.4777714285655
11313.6,-874.049199999994
11315.6,-894.3349142857082
11317.6,-950.4777714285653
11319.6,-1001.1920571428511
11321.6,-1022.7634857142797
11323.6,-1046.7634857142798
11325.6,-1101.7634857142796
11327.6,-1164.7634857142796
11329.6,-1201.1920571428511
11331.6,-1207.0491999999938
11333.6,-1191.6206285714227
11335.6,-1166.049199999994
11337.6,-1151.3349142857082
11339.6,-1153.3349142857082
11341.6,-1147.7634857142798
11343.6,-1128.049199999994
11345.6,-1130.6206285714227
11347.6,-1178.7634857142798
11349.6,-1240.049199999994
11351.6,-1269.906342857137
11353.6,-1268.4777714285653
11355.6,-1270.4777714285653
11357.6,-1295.192057142851
11359.58,-1328.4777714285651
11361.55,-1347.9063428571367
11363.53,-1349.7634857142798
11365.5,-1351.6206285714225
11367.5,-1373.9063428571367
11369.5,-1414.9063428571367
11371.5,-1443.9063428571367
11373.5,-1435.6206285714225
11375.5,-1409.7634857142796
11377.5,-1413.6206285714225
11379.5,-1463.7634857142796
11381.5,-1528.3349142857085
11383.5,-1566.7634857142798
11385.5,-1573.3349142857082
11387.5,-1574.4777714285653
11389.5,-1587.4777714285653
11391.5,-1580.9063428571367
11393.5,-1491.7634857142798
11395.5,-1292.4777714285653
11397.5,-1022.192057142851
11399.5,-732.192057142851
11401.5,-422.19205714285107
11403.5,-60.90634285713688
11405.5,339.52222857143454
11407.5,706.5222285714345
11409.5,965.3793714285773
11411.5,1087.8079428571489
11413.5,1081.2365142857202
11415.5,954.0936571428631
11417.5,701.5222285714345
11419.5,320.66508571429165
11421.5,-158.62062857142257
11423.5,-659.7634857142797
11425.5,-1095.4777714285653
11427.5,-1421.1920571428511
11429.5,-1644.1920571428511
11431.5,-1780.7634857142796
11433.5,-1827.192057142851
11435.5,-1777.7634857142796
11437.5,-1654.9063428571367
11439.47,-1511.4777714285653
11441.45,-1402.906342857137
11443.42,-1348.906342857137
11445.4,-1321.3349142857082
11447.4,-1284.1920571428514
11449.4,-1246.7634857142796
11451.4,-1253.906342857137
11453.4,-1314.6206285714225
11455.4,-1375.4777714285656
11457.4,-1384.1920571428511
11459.4,-1357.6206285714225
11461.4,-1354.3349142857082
11463.4,-1394.6206285714225
11465.4,-1436.049199999994
11467.4,-1434.906342857137
11469.4,-1403.0491999999938
11471.4,-1389.4777714285653
11473.4,-1415.4777714285653
11475.4,-1451.334914285708
11477.4,-1457.906342857137
11479.4,-1435.3349142857082
11481.4,-1415.9063428571367
11483.4,-1421.0491999999938
11485.4,-1435.7634857142796
11487.4,-1429.6206285714227
11489.4,-1396.4777714285653
11491.4,-1364.0491999999938
11493.4,-1362.6206285714225
11495.4,-1392.1920571428511
11497.4,-1425.3349142857082
11499.4,-1436.6206285714225
11501.4,-1428.7634857142796
11503.4,-1430.9063428571367
11505.4,-1466.3349142857082
11507.4,-1514.1920571428511
11509.4,-1524.0491999999938
11511.4,-1481.4777714285651
11513.4,-1436.906342857137
11515.4,-1436.4777714285653
11517.4,-1452.6206285714225
11519.38,-1424.3349142857082
11521.35,-1352.6206285714225
11523.33,-1303.3349142857082
11525.3,-1319.4777714285656
11527.3,-1370.9063428571367
11529.3,-1399.6206285714225
11531.3,-1386.334914285708
11533.3,-1362.6206285714227
11535.3,-1365.6206285714225
11537.3,-1389.7634857142798
11539.3,-1391.7634857142798
11541.3,-1348.1920571428511
11543.3,-1291.7634857142796
11545.3,-1273.9063428571367
11547.3,-1297.6206285714225
11549.3,-1313.6206285714225
11551.3,-1285.7634857142796
11553.3,-1235.4777714285651
11555.3,-1205.3349142857082
11557.3,-1202.7634857142796
11559.3,-1201.192057142851
11561.3,-1180.7634857142798
11563.3,-1146.049199999994
11565.3,-1117.7634857142798
11567.3,-1114.7634857142796
11569.3,-1132.4777714285653
11571.3,-1138.1920571428511
11573.3,-1108.4777714285653
11575.3,-1063.3349142857082
11577.3,-1042.049199999994
11579.3,-1052.049199999994
11581.3,-1062.3349142857082
11583.3,-1046.1920571428511
11585.3,-1015.7634857142796
11587.3,-1005.9063428571367
11589.3,-1029.4777714285651
11591.3,-1054.3349142857082
11593.3,-1036.3349142857082
11595.3,-977.192057142851
11597.2,-928.4777714285653
11599.2,-927.6206285714226
11601.2,-948.049199999994
11603.2,-936.7634857142798
11605.2,-891.4777714285653
11607.2,-864.1920571428511
11609.2,-883.6206285714225
11611.2,-913.4777714285653
11613.2,-907.4777714285653
11615.2,-871.7634857142797
11617.2,-845.9063428571368
11619.2,-847.3349142857082
11621.2,-860.0491999999939
11623.2,-859.4777714285653
11625.2,-836.3349142857084
11627.2,-805.6206285714225
11629.2,-793.6206285714225
11631.2,-808.3349142857081
11633.2,-829.0491999999939
11635.2,-831.049199999994
11637.2,-816.1920571428511
11639.2,-811.9063428571369
11641.2,-834.4777714285653
11643.2,-859.4777714285653
11645.2,-846.0491999999939
11647.2,-792.6206285714225
11649.2,-743.9063428571367
11651.2,-733.3349142857082
11653.2,-743.192057142851
11655.2,-735.0491999999939
11657.2,-702.3349142857084
11659.2,-678.1920571428511
11661.2,-695.3349142857082
11663.2,-743.1920571428511
11665.2,-777.3349142857082
11667.2,-775.7634857142796
11669.2,-770.6206285714225
11671.2,-803.6206285714226
11673.2,-866.049199999994
11675.2,-909.7634857142798
11677.1,-914.6206285714226
11679.1,-914.049199999994
11681.1,-948.6206285714226
11683.1,-1014.4777714285653
11685.1,-1074.3349142857082
11687.1,-1108.6206285714225
11689.1,-1137.0491999999938
11691.1,-1186.0491999999938
11693.1,-1253.6206285714225
11695.1,-1311.192057142851
11697.1,-1334.334914285708
11699.1,-1328.7634857142796
11701.1,-1324.3349142857085
11703.1,-1338.906342857137
11705.1,-1359.6206285714227
11707.1,-1365.3349142857085
11709.1,-1358.0491999999938
11711.1,-1358.6206285714225
11713.1,-1384.049199999994
11715.1,-1432.6206285714225
11717.1,-1483.0491999999938
11719.1,-1510.9063428571367
11721.1,-1516.906342857137
11723.1,-1529.3349142857082
11725.1,-1567.192057142851
11727.1,-1610.1920571428511
11729.1,-1621.906342857137
11731.1,-1601.7634857142796
11733.1,-1591.6206285714225
11735.1,-1622.3349142857082
11737.1,-1668.192057142851
11739.1,-1681.6206285714225
11741.1,-1660.6206285714225
11743.1,-1650.049199999994
11745.1,-1674.192057142851
11747.1,-1705.3349142857082
11749.1,-1706.6206285714227
11751.1,-1678.9063428571371
11753.1,-1648.3349142857082
11755.1,-1629.192057142851
11757.0,-1615.4777714285653
11759.0,-1596.7634857142798
11761.0,-1569.4777714285651
11763.0,-1541.0491999999938
11765.0,-1528.6206285714225
11767.0,-1545.7634857142796
11769.0,-1582.4777714285653
11771.0,-1607.9063428571367
11773.0,-1605.0491999999938
11775.0,-1596.4777714285653
11777.0,-1616.906342857137
11779.0,-1661.0491999999938
11781.0,-1683.4777714285651
11783.0,-1662.0491999999938
11785.0,-1633.3349142857082
11787.0,-1645.192057142851
11789.0,-1693.7634857142793
11791.0,-1728.4777714285651
11793.0,-1715.9063428571367
11795.0,-1688.9063428571367
11797.0,-1708.7634857142796
11799.0,-1773.4777714285653
11801.0,-1812.4777714285656
11803.0,-1799.334914285708
11805.0,-1795.3349142857082
11807.0,-1839.3349142857082
11809.0,-1882.1920571428511
11811.0,-1881.6206285714225
11813.0,-1869.4777714285653
11815.0,-1878.4777714285651
11817.0,-1886.7634857142796
11819.0,-1875.7634857142798
11821.0,-1875.3349142857082
11823.0,-1909.0491999999938
11825.0,-1946.049199999994
11827.0,-1952.4777714285656
11829.0,-1951.334914285708
11831.0,-1978.049199999994
11833.0,-2016.334914285708
11835.0,-2030.049199999994
11836.9,-2019.906342857137
11838.9,-2007.4777714285656
11840.9,-2004.3349142857082
11842.9,-2017.3349142857082
11844.9,-2040.906342857137
11846.9,-2047.3349142857082
11848.9,-2027.3349142857082
11850.9,-2016.7634857142796
11852.9,-2043.6206285714225
11854.9,-2079.0491999999936
11856.9,-2077.1920571428514
11858.9,-2041.049199999994
11860.9,-2018.3349142857078
11862.9,-2037.620628571422
11864.9,-2071.192057142851
11866.9,-2073.049199999994
11868.9,-2039.906342857137
11870.9,-2011.9063428571367
11872.9,-2014.6206285714225
11874.9,-2026.906342857137
11876.9,-2013.4777714285656
11878.9,-1971.7634857142798
11880.9,-1930.4777714285653
11882.9,-1916.7634857142798
11884.9,-1934.906342857137
11886.9,-1967.192057142851
11888.9,-1986.4777714285653
11890.9,-1983.3349142857085
11892.9,-1983.7634857142798
11894.9,-2016.4777714285656
11896.9,-2063.6206285714225
11898.9,-2079.3349142857082
11900.9,-2056.192057142851
11902.9,-2036.6206285714225
11904.9,-2054.7634857142793
11906.9,-2097.0491999999936
11908.9,-2126.3349142857082
11910.9,-2128.6206285714225
11912.9,-2127.76348571428
11914.9,-2152.049199999994
11916.8,-2191.049199999994
11918.8,-2204.7634857142793
11920.8,-2173.906342857136
11922.8,-2123.049199999994
11924.8,-2091.7634857142793
11926.8,-2092.6206285714225
11928.8,-2100.049199999994
11930.8,-2085.7634857142793
11932.8,-2057.477771428565
11934.8,-2047.192057142851
11936.8,-2063.049199999994
11938.8,-2076.620628571422
11940.8,-2058.76348571428
11942.8,-2012.3349142857082
11944.8,-1966.1920571428511
11946.8,-1946.6206285714227
11948.8,-1950.6206285714225
11950.8,-1951.1920571428514
11952.8,-1932.3349142857085
11954.8,-1911.3349142857087
11956.8,-1920.192057142851
11958.8,-1970.6206285714225
11960.8,-2037.334914285708
11962.8,-2081.3349142857082
11964.8,-2095.6206285714225
11966.8,-2116.906342857137
11968.8,-2173.7634857142793
11970.8,-2239.334914285708
11972.8,-2260.7634857142793
11974.8,-2231.192057142851
11976.8,-2203.3349142857082
11978.8,-2223.4777714285656
11980.8,-2271.4777714285656
11982.8,-2289.4777714285656
11984.8,-2263.76348571428
11986.8,-2245.192057142851
11988.78,-2274.7634857142793
11990.75,-2325.0491999999936
11992.72,-2345.0491999999936
11994.7,-2330.9063428571367
11996.7,-2319.9063428571367
11998.7,-2331.9063428571367
12000.7,-2347.192057142851
12002.7,-2338.9063428571367
12004.7,-2307.9063428571367
12006.7,-2282.192057142851
12008.7,-2288.192057142851
12010.7,-2324.3349142857082
12012.7,-2363.477771428565
12014.7,-2382.192057142851
12016.7,-2387.76348571428
12018.7,-2413.620628571422
12020.7,-2478.0491999999936
12022.7,-2555.4777714285656
12024.7,-2601.906342857137
12026.7,-2608.6206285714225
12028.7,-2607.192057142851
12030.7,-2617.76348571428
12032.7,-2608.3349142857082
12034.7,-2520.334914285708
12036.7,-2324.192057142851
12038.7,-2046.192057142851
12040.7,-1735.9063428571367
12042.7,-1413.192057142851
12044.7,-1057.9063428571367
12046.7,-667.7634857142798
12048.7,-304.90634285713685
12050.7,-56.47777142856543
12052.7,39.80794285714884
12054.7,2.0936571428631083
12056.7,-150.76348571427974
12058.7,-429.1920571428511
12060.7,-842.9063428571369
12062.7,-1356.3349142857082
12064.7,-1881.9063428571367
12066.7,-2323.6206285714225
12068.67,-2634.192057142851
12070.65,-2825.620628571422
12072.63,-2926.477771428565
12074.6,-2941.192057142851
12076.6,-2860.1920571428514
12078.6,-2709.049199999994
12080.6,-2563.049199999994
12082.6,-2486.906342857136
12084.6,-2470.906342857136
12086.6,-2456.049199999994
12088.6,-2415.049199999994
12090.6,-2377.9063428571367
12092.6,-2380.3349142857082
12094.6,-2417.049199999994
12096.6,-2450.3349142857087
12098.6,-2453.906342857137
12100.6,-2442.906342857137
12102.6,-2453.334914285708
12104.6,-2493.76348571428
12106.6,-2533.0491999999936
12108.6,-2539.192057142851
12110.6,-2516.192057142851
12112.6,-2499.049199999994
12114.6,-2515.3349142857082
12116.6,-2551.477771428565
12118.6,-2563.906342857137
12120.6,-2535.1920571428514
12122.6,-2502.477771428565
12124.6,-2507.3349142857082
12126.6,-2535.9063428571367
12128.6,-2541.0491999999936
12130.6,-2510.192057142851
12132.6,-2478.76348571428
12134.6,-2480.049199999994
12136.6,-2504.906342857137
12138.6,-2518.049199999994
12140.6,-2500.192057142851
12142.6,-2469.4777714285656
12144.6,-2461.049199999994
12146.6,-2485.9063428571367
12148.58,-2516.192057142851
12150.55,-2517.7634857142793
12152.53,-2491.906342857137
12154.5,-2476.049199999994
12156.5,-2499.192057142851
12158.5,-2540.4777714285656
12160.5,-2549.4777714285656
12162.5,-2512.192057142851
12164.5,-2478.0491999999936
12166.5,-2497.192057142851
12168.5,-2550.6206285714225
12170.5,-2571.7634857142803
12172.5,-2537.049199999994
12174.5,-2498.192057142851
12176.5,-2512.049199999994
12178.5,-2562.76348571428
12180.5,-2588.049199999994
12182.5,-2568.906342857137
12184.5,-2550.1920571428514
12186.5,-2571.192057142851
12188.5,-2615.3349142857082
12190.5,-2636.477771428565
12192.5,-2608.906342857137
12194.5,-2549.76348571428
12196.5,-2500.477771428565
12198.5,-2481.1920571428514
12200.5,-2466.192057142851
12202.5,-2422.9063428571367
12204.5,-2363.049199999994
12206.5,-2327.76348571428
12208.5,-2330.4777714285656
12210.5,-2343.7634857142793
12212.5,-2336.1920571428514
12214.5,-2301.049199999994
12216.5,-2256.4777714285656
12218.5,-2227.9063428571367
12220.5,-2220.6206285714225
12222.5,-2206.9063428571367
12224.5,-2160.477771428565
12226.5,-2101.049199999994
12228.47,-2077.6206285714225
12230.45,-2104.3349142857082
12232.42,-2139.76348571428
12234.4,-2139.3349142857082
12236.4,-2111.906342857137
12238.4,-2102.6206285714225
12240.4,-2125.9063428571367
12242.4,-2143.3349142857082
12244.4,-2117.7634857142793
12246.4,-2063.9063428571367
12248.4,-2026.6206285714225
12250.4,-2026.1920571428511
12252.4,-2038.4777714285656
12254.4,-2025.3349142857082
12256.4,-1981.3349142857085
12258.4,-1940.7634857142798
12260.4,-1932.3349142857082
12262.4,-1942.3349142857082
12264.4,-1937.3349142857082
12266.4,-1909.3349142857085
12268.4,-1881.7634857142798
12270.4,-1877.0491999999942
12272.4,-1891.7634857142798
12274.4,-1903.049199999994
12276.4,-1894.9063428571367
12278.4,-1875.6206285714225
12280.4,-1869.334914285708
12282.4,-1891.3349142857082
12284.4,-1929.7634857142796
12286.4,-1953.1920571428511
12288.4,-1944.0491999999938
12290.4,-1923.3349142857082
12292.4,-1929.0491999999938
12294.4,-1966.3349142857082
12296.4,-1991.9063428571367
12298.4,-1967.6206285714227
12300.4,-1925.049199999994
12302.4,-1932.9063428571367
12304.4,-1994.192057142851
12306.4,-2037.0491999999938
12308.38,-2026.6206285714222
12310.35,-2011.9063428571367
12312.33,-2036.1920571428511
12314.3,-2075.477771428565
12316.3,-2095.6206285714225
12318.3,-2103.477771428565
12320.3,-2117.192057142851
12322.3,-2138.7634857142793
12324.3,-2171.192057142851
12326.3,-2221.9063428571367
12328.3,-2277.4777714285656
12330.3,-2310.192057142851
12332.3,-2319.6206285714225
12334.3,-2334.3349142857082
12336.3,-2364.049199999994
12338.3,-2392.3349142857082
12340.3,-2416.7634857142793
12342.3,-2446.7634857142793
12344.3,-2474.7634857142793
12346.3,-2500.7634857142793
12348.3,-2550.3349142857082
12350.3,-2619.4777714285656
12352.3,-2656.9063428571367
12354.3,-2644.3349142857082
12356.3,-2632.9063428571367
12358.3,-2660.1920571428514
12360.3,-2693.906342857137
12362.3,-2688.049199999994
12364.3,-2652.4777714285656
12366.3,-2637.192057142851
12368.3,-2668.6206285714225
12370.3,-2721.049199999994
12372.3,-2750.6206285714225
12374.3,-2746.4777714285656
12376.3,-2740.049199999994
12378.3,-2763.192057142851
12380.3,-2804.76348571428
12382.3,-2825.477771428565
12384.3,-2813.7634857142793
12386.3,-2804.1920571428514
12388.28,-2827.477771428565
12390.25,-2869.192057142851
12392.22,-2895.7634857142793
12394.2,-2900.0491999999936
12396.2,-2898.7634857142793
12398.2,-2905.192057142851
12400.2,-2923.049199999994
12402.2,-2949.334914285708
12404.2,-2969.7634857142793
12406.2,-2968.763485714279
12408.2,-2955.906342857136
12410.2,-2961.049199999994
12412.2,-2992.9063428571367
12414.2,-3019.7634857142793
12416.2,-3009.477771428565
12418.2,-2976.049199999994
12420.2,-2965.049199999994
12422.2,-2987.4777714285647
12424.2,-2997.7634857142793
12426.2,-2958.334914285708
12428.2,-2902.0491999999936
12430.2,-2891.0491999999936
12432.2,-2928.3349142857082
12434.2,-2954.049199999994
12436.2,-2929.477771428565
12438.2,-2883.6206285714225
12440.2,-2865.906342857137
12442.2,-2881.9063428571367
12444.2,-2898.192057142851
12446.2,-2894.477771428565
12448.2,-2886.477771428565
12450.2,-2899.3349142857082
12452.2,-2937.192057142851
12454.2,-2982.76348571428
12456.2,-3015.049199999994
12458.2,-3024.3349142857082
12460.2,-3020.620628571422
12462.2,-3025.906342857136
12464.2,-3051.6206285714225
12466.2,-3083.192057142851
12468.17,-3096.7634857142793
12470.15,-3091.3349142857082
12472.13,-3093.192057142851
12474.1,-3122.192057142851
12476.1,-3162.6206285714225
12478.1,-3178.9063428571367
12480.1,-3165.192057142851
12482.1,-3158.6206285714225
12484.1,-3187.049199999994
12486.1,-3223.334914285708
12488.1,-3221.334914285708
12490.1,-3183.6206285714225
12492.1,-3161.477771428565
12494.1,-3189.3349142857082
12496.1,-3243.4777714285656
12498.1,-3275.0491999999936
12500.1,-3274.7634857142793
12502.1,-3284.477771428565
12504.1,-3335.3349142857082
12506.1,-3396.76348571428
12508.1,-3412.3349142857082
12510.1,-3374.334914285708
12512.1,-3330.477771428565
12514.1,-3319.477771428565
12516.1,-3329.0491999999936
12518.1,-3323.9063428571367
12520.1,-3293.6206285714225
12522.1,-3262.0491999999945
12524.1,-3256.9063428571367
12526.1,-3278.192057142851
12528.1,-3299.3349142857082
12530.1,-3299.0491999999936
12532.1,-3285.7634857142793
12534.1,-3288.6206285714225
12536.1,-3323.7634857142793
12538.1,-3370.906342857136
12540.1,-3391.906342857136
12542.1,-3374.049199999994
12544.1,-3346.76348571428
12546.1,-3345.906342857137
12548.08,-3367.6206285714225
12550.05,-3373.477771428565
12552.03,-3341.6206285714225
12554.0,-3300.0491999999936
12556.0,-3296.334914285708
12558.0,-3331.906342857136
12560.0,-3352.7634857142793
12562.0,-3322.477771428565
12564.0,-3276.906342857137
12566.0,-3271.3349142857082
12568.0,-3299.4777714285656
12570.0,-3307.192057142851
12572.0,-3273.76348571428
12574.0,-3235.049199999994
12576.0,-3229.76348571428
12578.0,-3252.9063428571367
12580.0,-3270.192057142851
12582.0,-3259.334914285708
12584.0,-3232.9063428571367
12586.0,-3222.334914285708
12588.0,-3243.3349142857082
12590.0,-3278.192057142851
12592.0,-3292.4777714285656
12594.0,-3270.334914285708
12596.0,-3235.334914285708
12598.0,-3227.477771428565
12600.0,-3257.7634857142793
12602.0,-3295.76348571428
12604.0,-3310.192057142851
12606.0,-3309.477771428565
12608.0,-3331.1920571428504
12610.0,-3393.0491999999936
12612.0,-3465.049199999994
12614.0,-3499.3349142857087
12616.0,-3487.76348571428
12618.0,-3472.6206285714225
12620.0,-3491.477771428565
12622.0,-3527.7634857142793
12624.0,-3536.906342857136
12626.0,-3510.9063428571367
12627.97,-3491.9063428571367
12629.95,-3516.7634857142793
12631.92,-3567.192057142851
12633.9,-3591.9063428571367
12635.9,-3572.76348571428
12637.9,-3546.906342857137
12639.9,-3553.3349142857087
12641.9,-3579.620628571423
12643.9,-3582.620628571423
12645.9,-3554.192057142851
12647.9,-3535.620628571422
12649.9,-3562.1920571428504
12651.9,-3616.477771428565
12653.9,-3655.906342857136
12655.9,-3666.7634857142793
12657.9,-3674.9063428571367
12659.9,-3709.192057142851
12661.9,-3771.334914285708
12663.9,-3838.906342857136
12665.9,-3887.7634857142793
12667.9,-3911.192057142851
12669.9,-3920.049199999994
12671.9,-3919.7634857142793
12673.9,-3883.620628571423
12675.9,-3760.3349142857087
12677.9,-3525.049199999994
12679.9,-3215.76348571428
12681.9,-2890.7634857142793
12683.9,-2558.906342857136
12685.9,-2188.906342857137
12687.9,-1790.049199999994
12689.9,-1439.3349142857082
12691.9,-1217.3349142857082
12693.9,-1147.6206285714227
12695.9,-1208.3349142857082
12697.9,-1384.6206285714227
12699.9,-1692.9063428571367
12701.9,-2142.192057142851
12703.9,-2680.4777714285656
12705.9,-3203.4777714285656
12707.88,-3624.0491999999936
12709.85,-3921.192057142851
12711.83,-4118.049199999993
12713.8,-4229.192057142851
12715.8,-4246.334914285708
12717.8,-4173.334914285708
12719.8,-4054.906342857136
12721.8,-3951.7634857142793
12723.8,-3893.049199999993
12725.8,-3865.1920571428504
12727.8,-3839.76348571428
12729.8,-3801.334914285708
12731.8,-3763.192057142851
12733.8,-3756.049199999994
12735.8,-3784.6206285714225
12737.8,-3809.763485714279
12739.8,-3797.049199999994
12741.8,-3762.049199999994
12743.8,-3745.192057142851
12745.8,-3756.6206285714225
12747.8,-3768.192057142851
12749.8,-3750.192057142851
12751.8,-3706.4777714285647
12753.8,-3672.0491999999936
12755.8,-3673.4777714285647
12757.8,-3693.477771428565
12759.8,-3692.7634857142793
12761.8,-3663.6206285714225
12763.8,-3642.192057142851
12765.8,-3659.3349142857082
12767.8,-3697.6206285714225
12769.8,-3715.049199999994
12771.8,-3703.049199999994
12773.8,-3696.6206285714225
12775.8,-3722.0491999999936
12777.8,-3759.049199999994
12779.8,-3772.049199999994
12781.8,-3758.3349142857082
12783.8,-3742.4777714285656
12785.8,-3738.906342857137
12787.78,-3741.049199999994
12789.75,-3736.477771428565
12791.72,-3721.76348571428
12793.7,-3704.4777714285656
12795.7,-3698.049199999994
12797.7,-3710.192057142851
12799.7,-3734.477771428565
12801.7,-3751.192057142851
12803.7,-3743.477771428565
12805.7,-3719.192057142851
12807.7,-3711.0491999999936
12809.7,-3736.192057142851
12811.7,-3762.192057142851
12813.7,-3745.9063428571367
12815.7,-3705.192057142851
12817.7,-3704.6206285714225
12819.7,-3754.9063428571367
12821.7,-3787.7634857142793
12823.7,-3763.620628571422
12825.7,-3733.192057142851
12827.7,-3746.334914285708
12829.7,-3771.906342857136
12831.7,-3761.049199999993
12833.7,-3723.6206285714225
12835.7,-3694.763485714279
12837.7,-3674.9063428571367
12839.7,-3647.049199999994
12841.7,-3615.0491999999936
12843.7,-3590.6206285714225
12845.7,-3568.192057142851
12847.7,-3541.3349142857082
12849.7,-3517.4777714285656
12851.7,-3497.906342857137
12853.7,-3473.906342857137
12855.7,-3451.1920571428504
12857.7,-3438.6206285714225
12859.7,-3421.1920571428504
12861.7,-3392.0491999999936
12863.7,-3379.9063428571367
12865.7,-3394.6206285714225
12867.67,-3393.334914285708
12869.65,-3350.4777714285656
12871.63,-3307.3349142857082
12873.6,-3306.3349142857082
12875.6,-3322.049199999994
12877.6,-3302.3349142857082
12879.6,-3246.0491999999936
12881.6,-3202.334914285708
12883.6,-3202.334914285708
12885.6,-3222.4777714285656
12887.6,-3220.7634857142793
12889.6,-3193.0491999999936
12891.6,-3174.0491999999936
12893.6,-3187.334914285708
12895.6,-3211.6206285714225
12897.6,-3207.3349142857082
12899.6,-3165.620628571423
12901.6,-3117.6206285714225
12903.6,-3093.6206285714225
12905.6,-3090.7634857142793
12907.6,-3088.049199999994
12909.6,-3076.1920571428514
12911.6,-3061.6206285714225
12913.6,-3053.192057142851
12915.6,-3055.6206285714225
12917.6,-3065.76348571428
12919.6,-3068.3349142857082
12921.6,-3047.7634857142793
12923.6,-3014.477771428565
12925.6,-3002.3349142857082
12927.6,-3025.3349142857082
12929.6,-3051.049199999994
12931.6,-3040.9063428571367
12933.6,-3008.192057142851
12935.6,-3003.0491999999936
12937.6,-3039.192057142851
12939.6,-3073.6206285714225
12941.6,-3073.192057142851
12943.6,-3061.477771428565
12945.6,-3079.477771428565
12947.58,-3127.9063428571367
12949.55,-3172.9063428571367
12951.53,-3188.4777714285656
12953.5,-3179.9063428571367
12955.5,-3176.049199999994
12957.5,-3202.6206285714225
12959.5,-3249.906342857136
12961.5,-3279.1920571428504
12963.5,-3277.192057142851
12965.5,-3285.3349142857082
12967.5,-3346.477771428565
12969.5,-3439.192057142851
12971.5,-3502.7634857142793
12973.5,-3520.4777714285656
12975.5,-3534.334914285708
12977.5,-3576.049199999994
12979.5,-3626.620628571423
12981.5,-3654.620628571422
12983.5,-3659.192057142851
12985.5,-3662.192057142851
12987.5,-3683.9063428571367
12989.5,-3731.906342857137
12991.5,-3790.3349142857082
12993.5,-3822.7634857142793
12995.5,-3813.620628571422
12997.5,-3800.620628571422
12999.5,-3829.7634857142793
13001.5,-3884.334914285708
13003.5,-3905.334914285708
13005.5,-3879.763485714279
13007.5,-3860.6206285714225
13009.5,-3890.0491999999936
13011.5,-3941.192057142851
13013.5,-3956.76348571428
13015.5,-3925.192057142851
13017.5,-3894.334914285708
13019.5,-3910.7634857142793
13021.5,-3962.3349142857082
13023.5,-3997.192057142851
13025.5,-3992.192057142851
13027.47,-3978.7634857142793
13029.45,-3994.3349142857082
13031.42,-4031.477771428565
13033.4,-4052.192057142851
13035.4,-4038.76348571428
13037.4,-4011.049199999994
13039.4,-3998.3349142857087
13041.4,-4011.3349142857087
13043.4,-4038.4777714285656
13045.4,-4055.906342857137
13047.4,-4049.049199999994
13049.4,-4033.0491999999936
13051.4,-4037.9063428571367
13053.4,-4064.334914285708
13055.4,-4071.1920571428504
13057.4,-4028.9063428571367
13059.4,-3973.620628571422
13061.4,-3970.477771428565
13063.4,-4023.7634857142793
13065.4,-4066.6206285714225
13067.4,-4055.7634857142793
13069.4,-4031.049199999994
13071.4,-4053.334914285708
13073.4,-4114.763485714279
13075.4,-4150.477771428566
13077.4,-4127.906342857137
13079.4,-4088.0491999999936
13081.4,-4087.0491999999936
13083.4,-4126.192057142851
13085.4,-4160.049199999994
13087.4,-4159.763485714279
13089.4,-4144.6206285714225
13091.4,-4152.477771428566
13093.4,-4193.334914285708
13095.4,-4237.049199999993
13097.4,-4247.906342857137
13099.4,-4224.192057142851
13101.4,-4195.334914285708
13103.4,-4186.192057142851
13105.4,-4194.334914285708
13107.38,-4197.477771428565
13109.35,-4180.334914285708
13111.33,-4156.763485714279
13113.3,-4156.477771428566
13115.3,-4182.620628571422
13117.3,-4201.192057142851
13119.3,-4187.477771428565
13121.3,-4162.049199999994
13123.3,-4163.049199999994
13125.3,-4197.6206285714225
13127.3,-4236.906342857136
13129.3,-4251.906342857136
13131.3,-4245.763485714278
13133.3,-4252.049199999994
13135.3,-4292.334914285708
13137.3,-4340.334914285708
13139.3,-4351.763485714279
13141.3,-4328.049199999994
13143.3,-4317.049199999994
13145.3,-4347.192057142851
13147.3,-4390.477771428566
13149.3,-4400.334914285708
13151.3,-4368.477771428566
13153.3,-4333.192057142851
13155.3,-4332.76348571428
13157.3,-4358.6206285714225
13159.3,-4366.906342857136
13161.3,-4336.192057142851
13163.3,-4298.049199999994
13165.3,-4298.6206285714225
13167.3,-4340.334914285708
13169.3,-4377.763485714279
13171.3,-4376.192057142851
13173.3,-4354.049199999994
13175.3,-4352.192057142851
13177.3,-4374.6206285714225
13179.3,-4386.6206285714225
13181.3,-4361.906342857136
13183.3,-4313.334914285708
13185.2,-4279.334914285708
13187.2,-4285.477771428565
13189.2,-4311.6206285714225
13191.2,-4309.477771428566
13193.2,-4262.049199999994
13195.2,-4204.6206285714225
13197.2,-4174.049199999994
13199.2,-4164.477771428565
13201.2,-4145.477771428565
13203.2,-4101.477771428566
13205.2,-4051.192057142851
13207.2,-4034.049199999994
13209.2,-4066.6206285714225
13211.2,-4114.192057142851
13213.2,-4132.6206285714225
13215.2,-4134.477771428565
13217.2,-4175.334914285708
13219.2,-4270.192057142851
13221.2,-4363.6206285714225
13223.2,-4402.477771428565
13225.2,-4404.477771428566
13227.2,-4422.192057142851
13229.2,-4461.906342857136
13231.2,-4482.049199999993
13233.2,-4459.620628571422
13235.2,-4420.763485714279
13237.2,-4404.906342857136
13239.2,-4425.477771428565
13241.2,-4463.906342857137
13243.2,-4490.763485714279
13245.2,-4495.477771428565
13247.2,-4498.192057142851
13249.2,-4522.477771428565
13251.2,-4560.763485714279
13253.2,-4580.477771428565
13255.2,-4563.049199999994
13257.2,-4525.906342857137
13259.2,-4503.192057142851
13261.2,-4511.192057142851
13263.2,-4535.192057142851
13265.1,-4548.049199999994
13267.1,-4540.192057142851
13269.1,-4534.6206285714225
13271.1,-4564.334914285708
13273.1,-4628.906342857137
13275.1,-4686.192057142851
13277.1,-4706.334914285708
13279.1,-4717.192057142851
13281.1,-4767.477771428566
13283.1,-4847.906342857136
13285.1,-4889.049199999994
13287.1,-4845.906342857137
13289.1,-4745.049199999994
13291.1,-4621.906342857136
13293.1,-4451.763485714279
13295.1,-4182.049199999994
13297.1,-3810.0491999999936
13299.1,-3387.9063428571367
13301.1,-2969.76348571428
13303.1,-2585.9063428571367
13305.1,-2256.3349142857082
13307.1,-2009.0491999999938
13309.1,-1889.906342857137
13311.1,-1946.1920571428511
13313.1,-2191.049199999994
13315.1,-2591.192057142851
13317.1,-3085.477771428565
13319.1,-3605.6206285714225
13321.1,-4099.049199999994
13323.1,-4540.477771428566
13325.1,-4901.6206285714225
13327.1,-5130.620628571422
13329.1,-5201.906342857136
13331.1,-5158.049199999993
13333.1,-5065.906342857136
13335.1,-4962.906342857137
13337.1,-4860.334914285709
13339.1,-4760.906342857136
13341.1,-4665.906342857136
13343.1,-4591.906342857136
13345.0,-4567.192057142851
13347.0,-4590.620628571422
13349.0,-4620.334914285709
13351.0,-4626.049199999994
13353.0,-4625.6206285714225
13355.0,-4646.477771428565
13357.0,-4672.906342857137
13359.0,-4672.477771428566
13361.0,-4657.192057142851
13363.0,-4659.906342857137
13365.0,-4670.477771428565
13367.0,-4663.477771428565
13369.0,-4657.049199999994
13371.0,-4673.334914285708
13373.0,-4681.192057142851
13375.0,-4648.192057142851
13377.0,-4606.906342857136
13379.0,-4602.763485714279
13381.0,-4618.049199999994
13383.0,-4603.192057142851
13385.0,-4557.620628571422
13387.0,-4528.906342857137
13389.0,-4540.049199999994
13391.0,-4557.763485714279
13393.0,-4542.192057142851
13395.0,-4500.192057142851
13397.0,-4473.049199999994
13399.0,-4484.049199999994
13401.0,-4514.334914285708
13403.0,-4530.6206285714225
13405.0,-4525.477771428566
13407.0,-4521.477771428565
13409.0,-4538.192057142851
13411.0,-4565.620628571422
13413.0,-4573.049199999994
13415.0,-4544.334914285709
13417.0,-4499.76348571428
13419.0,-4475.334914285708
13421.0,-4483.6206285714225
13423.0,-4504.192057142852
13424.9,-4509.049199999994
13426.9,-4493.620628571422
13428.9,-4481.477771428565
13430.9,-4497.049199999994
13432.9,-4529.334914285708
13434.9,-4538.049199999994
13436.9,-4505.477771428565
13438.9,-4464.6206285714225
13440.9,-4455.192057142851
13442.9,-4471.049199999994
13444.9,-4474.192057142851
13446.9,-4448.6206285714225
13448.9,-4415.477771428565
13450.9,-4402.334914285708
13452.9,-4413.763485714279
13454.9,-4427.906342857137
13456.9,-4416.334914285708
13458.9,-4375.763485714279
13460.9,-4338.76348571428
13462.9,-4335.76348571428
13464.9,-4351.477771428565
13466.9,-4342.192057142851
13468.9,-4297.763485714279
13470.9,-4258.6206285714225
13472.9,-4259.049199999993
13474.9,-4278.620628571422
13476.9,-4273.049199999994
13478.9,-4237.192057142851
13480.9,-4206.906342857137
13482.9,-4207.334914285708
13484.9,-4226.334914285709
13486.9,-4234.334914285708
13488.9,-4210.906342857137
13490.9,-4161.477771428565
13492.9,-4114.192057142851
13494.9,-4088.049199999994
13496.88,-4065.192057142851
13498.85,-4016.9063428571367
13500.83,-3950.049199999994
13502.8,-3902.9063428571367
13504.8,-3896.620628571422
13506.8,-3911.049199999994
13508.8,-3910.334914285708
13510.8,-3884.6206285714225
13512.8,-3859.7634857142803
13514.8,-3861.3349142857082
13516.8,-3872.906342857137
13518.8,-3852.049199999994
13520.8,-3789.9063428571367
13522.8,-3730.192057142851
13524.8,-3715.76348571428
13526.8,-3733.3349142857082
13528.8,-3732.4777714285656
13530.8,-3696.4777714285656
13532.8,-3666.0491999999945
13534.8,-3681.192057142852
13536.8,-3727.76348571428
13538.8,-3761.4777714285656
13540.8,-3763.4777714285656
13542.8,-3753.4777714285656
13544.8,-3761.6206285714225
13546.8,-3796.477771428565
13548.8,-3831.049199999994
13550.8,-3827.906342857137
13552.8,-3788.334914285708
13554.8,-3760.0491999999936
13556.8,-3778.334914285708
13558.8,-3822.4777714285656
13560.8,-3846.9063428571367
13562.8,-3843.049199999994
13564.8,-3849.049199999994
13566.8,-3897.4777714285647
13568.8,-3971.334914285708
13570.8,-4023.477771428565
13572.8,-4030.7634857142793
13574.8,-4018.334914285708
13576.78,-4028.9063428571367
13578.75,-4073.906342857137
13580.72,-4121.477771428565
13582.7,-4138.334914285708
13584.7,-4139.049199999994
13586.7,-4175.477771428566
13588.7,-4263.192057142851
13590.7,-4347.906342857137
13592.7,-4376.049199999994
13594.7,-4372.192057142851
13596.7,-4398.477771428565
13598.7,-4460.477771428566
13600.7,-4505.477771428565
13602.7,-4504.6206285714225
13604.7,-4486.334914285709
13606.7,-4488.763485714279
13608.7,-4514.334914285709
13610.7,-4537.049199999994
13612.7,-4538.906342857136
13614.7,-4527.192057142851
13616.7,-4522.192057142851
13618.7,-4538.477771428566
13620.7,-4572.477771428565
13622.7,-4598.906342857136
13624.7,-4590.192057142851
13626.7,-4550.334914285708
13628.7,-4519.049199999994
13630.7,-4524.906342857137
13632.7,-4545.76348571428
13634.7,-4539.334914285708
13636.7,-4504.6206285714225
13638.7,-4488.6206285714225
13640.7,-4524.763485714279
13642.7,-4585.477771428566
13644.7,-4616.049199999994
13646.7,-4606.192057142851
13648.7,-4602.334914285708
13650.7,-4640.477771428565
13652.7,-4690.906342857137
13654.7,-4697.477771428565
13656.67,-4658.334914285708
13658.65,-4631.76348571428
13660.63,-4659.906342857137
13662.6,-4716.192057142851
13664.6,-4744.334914285709
13666.6,-4733.477771428565
13668.6,-4728.477771428565
13670.6,-4764.049199999994
13672.6,-4814.049199999994
13674.6,-4828.049199999994
13676.6,-4795.763485714279
13678.6,-4750.334914285708
13680.6,-4724.192057142851
13682.6,-4722.192057142851
13684.6,-4720.192057142852
13686.6,-4687.76348571428
13688.6,-4629.763485714279
13690.6,-4594.477771428565
13692.6,-4612.334914285708
13694.6,-4649.477771428565
13696.6,-4652.6206285714225
13698.6,-4623.763485714279
13700.6,-4616.6206285714225
13702.6,-4664.334914285708
13704.6,-4737.6206285714225
13706.6,-4782.477771428566
13708.6,-4783.477771428565
13710.6,-4776.049199999994
13712.6,-4795.906342857136
13714.6,-4833.049199999994
13716.6,-4844.334914285708
13718.6,-4805.477771428566
13720.6,-4746.334914285708
13722.6,-4725.763485714279
13724.6,-4762.049199999994
13726.6,-4806.049199999993
13728.6,-4803.76348571428
13730.6,-4769.334914285708
13732.6,-4761.6206285714225
13734.6,-4798.049199999994
13736.58,-4830.334914285708
13738.55,-4814.049199999994
13740.53,-4769.334914285708
13742.5,-4752.763485714279
13744.5,-4785.049199999994
13746.5,-4830.6206285714225
13748.5,-4848.763485714279
13750.5,-4841.334914285708
13752.5,-4839.763485714279
13754.5,-4860.334914285708
13756.5,-4891.192057142851
13758.5,-4912.192057142851
13760.5,-4912.763485714279
13762.5,-4897.334914285708
13764.5,-4887.192057142851
13766.5,-4900.906342857136
13768.5,-4926.906342857137
13770.5,-4929.76348571428
13772.5,-4895.334914285708
13774.5,-4854.334914285708
13776.5,-4845.477771428565
13778.5,-4857.906342857137
13780.5,-4838.906342857136
13782.5,-4770.906342857136
13784.5,-4708.334914285709
13786.5,-4704.620628571422
13788.5,-4736.192057142851
13790.5,-4742.906342857137
13792.5,-4715.906342857136
13794.5,-4696.049199999994
13796.5,-4703.763485714279
13798.5,-4715.477771428565
13800.5,-4703.19205714285
13802.5,-4665.477771428565
13804.5,-4623.334914285708
13806.5,-4601.763485714279
13808.5,-4611.049199999994
13810.5,-4637.477771428565
13812.5,-4657.620628571422
13814.5,-4666.6206285714225
13816.47,-4687.763485714279
13818.45,-4744.049199999994
13820.42,-4822.763485714279
13822.4,-4880.477771428565
13824.4,-4895.334914285709
13826.4,-4901.906342857137
13828.4,-4943.334914285708
13830.4,-4997.192057142852
13832.4,-5002.477771428566
13834.4,-4960.477771428565
13836.4,-4938.192057142851
13838.4,-4962.76348571428
13840.4,-4990.906342857137
13842.4,-4993.6206285714225
13844.4,-4994.620628571423
13846.4,-5011.906342857136
13848.4,-5029.906342857136
13850.4,-5043.049199999994
13852.4,-5067.906342857137
13854.4,-5098.192057142851
13856.4,-5101.906342857136
13858.4,-5078.906342857137
13860.4,-5068.192057142851
13862.4,-5082.6206285714225
13864.4,-5093.477771428565
13866.4,-5089.6206285714225
13868.4,-5089.192057142851
13870.4,-5094.049199999994
13872.4,-5094.192057142851
13874.4,-5102.906342857136
13876.4,-5129.192057142851
13878.4,-5150.049199999994
13880.4,-5154.763485714279
13882.4,-5172.906342857137
13884.4,-5223.477771428566
13886.4,-5273.192057142851
13888.4,-5270.19205714285
13890.4,-5197.906342857137
13892.4,-5077.763485714279
13894.4,-4923.906342857137
13896.38,-4708.76348571428
13898.35,-4392.049199999994
13900.33,-3988.1920571428504
13902.3,-3572.7634857142793
13904.3,-3211.906342857136
13906.3,-2917.477771428565
13908.3,-2687.9063428571367
13910.3,-2563.192057142851
13912.3,-2608.192057142851
13914.3,-2850.6206285714225
13916.3,-3256.4777714285656
13918.3,-3756.763485714279
13920.3,-4281.906342857136
13922.3,-4777.906342857137
13924.3,-5207.049199999993
13926.3,-5536.477771428565
13928.3,-5732.906342857136
13930.3,-5783.192057142851
13932.3,-5718.192057142851
13934.3,-5596.906342857137
13936.3,-5465.049199999994
13938.3,-5341.049199999993
13940.3,-5234.049199999993
13942.3,-5154.477771428566
13944.3,-5108.6206285714225
13946.3,-5098.6206285714225
13948.3,-5120.477771428566
13950.3,-5153.334914285708
13952.3,-5166.049199999993
13954.3,-5153.334914285708
13956.3,-5144.334914285708
13958.3,-5157.334914285708
13960.3,-5169.19205714285
13962.3,-5150.19205714285
13964.3,-5108.192057142851
13966.3,-5078.334914285709
13968.3,-5079.334914285709
13970.3,-5092.192057142851
13972.3,-5084.6206285714225
13974.3,-5055.6206285714225
13976.28,-5042.477771428566
13978.25,-5070.763485714279
13980.22,-5116.906342857136
13982.2,-5138.192057142851
13984.2,-5126.192057142851
13986.2,-5110.6206285714225
13988.2,-5114.334914285708
13990.2,-5119.334914285709
13992.2,-5091.477771428566
13994.2,-5031.763485714279
13996.2,-4981.334914285709
13998.2,-4970.334914285709
14000.2,-4986.192057142851
14002.2,-4999.477771428565
14004.2,-5000.6206285714225
14006.2,-5001.906342857137
14008.2,-5017.906342857137
14010.2,-5046.192057142851
14012.2,-5063.763485714279
14014.2,-5047.76348571428
14016.2,-5003.477771428566
14018.2,-4965.334914285708
14020.2,-4962.906342857137
14022.2,-4987.477771428566
14024.2,-4998.334914285708
14026.2,-4972.6206285714225
14028.2,-4940.620628571422
14030.2,-4947.763485714279
14032.2,-4985.192057142851
14034.2,-4994.049199999993
14036.2,-4947.334914285708
14038.2,-4892.906342857136
14040.2,-4889.763485714279
14042.2,-4927.19205714285
14044.2,-4942.906342857137
14046.2,-4912.049199999994
14048.2,-4878.477771428566
14050.2,-4888.192057142851
14052.2,-4925.763485714279
14054.2,-4940.192057142851
14056.17,-4914.334914285708
14058.15,-4878.763485714279
14060.13,-4864.192057142851
14062.1,-4867.334914285709
14064.1,-4864.906342857136
14066.1,-4844.192057142851
14068.1,-4815.6206285714225
14070.1,-4799.763485714279
14072.1,-4803.763485714279
14074.1,-4812.906342857136
14076.1,-4806.192057142851
14078.1,-4777.049199999994
14080.1,-4739.049199999994
14082.1,-4715.334914285709
14084.1,-4713.334914285708
14086.1,-4707.763485714279
14088.1,-4666.477771428565
14090.1,-4599.76348571428
14092.1,-4552.192057142851
14094.1,-4536.477771428565
14096.1,-4509.334914285708
14098.1,-4435.6206285714225
14100.1,-4345.049199999994
14102.1,-4298.6206285714225
14104.1,-4311.049199999994
14106.1,-4335.192057142851
14108.1,-4325.6206285714225
14110.1,-4292.906342857136
14112.1,-4280.049199999994
14114.1,-4300.76348571428
14116.1,-4321.477771428565
14118.1,-4303.192057142851
14120.1,-4249.192057142851
14122.1,-4203.906342857137
14124.1,-4201.049199999994
14126.1,-4221.6206285714225
14128.1,-4221.334914285708
14130.1,-4188.620628571422
14132.1,-4152.477771428566
14134.1,-4139.192057142851
14136.1,-4145.049199999994
14138.1,-4149.763485714279
14140.1,-4137.192057142851
14142.1,-4109.334914285708
14144.0,-4089.9063428571367
14146.0,-4101.334914285708
14148.0,-4130.6206285714225
14150.0,-4138.906342857137
14152.0,-4116.477771428565
14154.0,-4102.906342857137
14156.0,-4131.6206285714225
14158.0,-4181.906342857136
14160.0,-4211.477771428565
14162.0,-4215.477771428565
14164.0,-4228.049199999993
14166.0,-4274.620628571422
14168.0,-4342.334914285708
14170.0,-4395.6206285714225
14172.0,-4414.6206285714225
14174.0,-4419.763485714279
14176.0,-4451.477771428565
14178.0,-4517.6206285714225
14180.0,-4577.192057142851
14182.0,-4598.334914285708
14184.0,-4611.049199999994
14186.0,-4667.192057142851
14188.0,-4759.6206285714225
14190.0,-4829.763485714279
14192.0,-4850.763485714279
14194.0,-4857.049199999994
14196.0,-4885.477771428565
14198.0,-4928.6206285714225
14200.0,-4956.192057142851
14202.0,-4955.6206285714225
14204.0,-4942.477771428565
14206.0,-4944.763485714279
14208.0,-4977.76348571428
14210.0,-5025.477771428566
14212.0,-5055.906342857136
14214.0,-5059.906342857136
14216.0,-5061.477771428565
14218.0,-5083.192057142851
14220.0,-5113.6206285714225
14222.0,-5116.906342857136
14223.9,-5075.192057142851
14225.9,-5014.334914285708
14227.9,-4977.906342857136
14229.9,-4975.6206285714225
14231.9,-4975.763485714279
14233.9,-4954.763485714279
14235.9,-4934.334914285708
14237.9,-4951.906342857136
14239.9,-5008.477771428566
14241.9,-5061.763485714279
14243.9,-5076.477771428565
14245.9,-5066.477771428566
14247.9,-5072.192057142851
14249.9,-5102.620628571422
14251.9,-5123.763485714279
14253.9,-5105.049199999994
14255.9,-5059.763485714279
14257.9,-5030.906342857136
14259.9,-5043.477771428565
14261.9,-5076.192057142852
14263.9,-5087.6206285714225
14265.9,-5070.906342857136
14267.9,-5060.763485714278
14269.9,-5082.906342857136
14271.9,-5121.763485714279
14273.9,-5145.049199999994
14275.9,-5139.6206285714225
14277.9,-5120.049199999994
14279.9,-5112.334914285708
14281.9,-5130.334914285708
14283.9,-5161.334914285709
14285.9,-5178.620628571423
14287.9,-5168.906342857137
14289.9,-5147.906342857136
14291.9,-5147.334914285708
14293.9,-5176.334914285708
14295.9,-5200.906342857137
14297.9,-5188.477771428566
14299.9,-5161.763485714279
14301.9,-5171.620628571422
14303.8,-5220.049199999993
14305.8,-5256.477771428566
14307.8,-5252.763485714278
14309.8,-5238.334914285708
14311.8,-5251.6206285714225
14313.8,-5287.192057142851
14315.8,-5306.620628571422
14317.8,-5291.192057142852
14319.8,-5264.192057142851
14321.8,-5257.6206285714225
14323.8,-5271.6206285714225
14325.8,-5277.6206285714225
14327.8,-5254.334914285709
14329.8,-5209.334914285709
14331.8,-5170.6206285714225
14333.8,-5159.049199999994
14335.8,-5164.477771428565
14337.8,-5153.477771428566
14339.8,-5111.763485714279
14341.8,-5070.906342857136
14343.8,-5068.620628571423
14345.8,-5087.763485714279
14347.8,-5075.906342857137
14349.8,-5024.477771428565
14351.8,-4978.477771428566
14353.8,-4961.763485714279
14355.8,-4951.6206285714225
14357.8,-4936.334914285709
14359.8,-4934.334914285709
14361.8,-4948.906342857137
14363.8,-4963.76348571428
14365.8,-4989.620628571422
14367.8,-5056.6206285714225
14369.8,-5152.334914285708
14371.8,-5223.620628571422
14373.8,-5257.192057142852
14375.8,-5295.763485714279
14377.8,-5356.049199999994
14379.8,-5399.192057142852
14381.8,-5403.6206285714225
14383.7,-5394.334914285709
14385.7,-5388.192057142851
14387.7,-5378.763485714279
14389.7,-5372.192057142851
14391.7,-5375.620628571422
14393.7,-5370.192057142851
14395.7,-5345.192057142852
14397.7,-5330.906342857136
14399.7,-5359.049199999994
14401.7,-5414.763485714279
14403.7,-5455.763485714279
14405.7,-5468.477771428566
14407.7,-5481.906342857137
14409.7,-5521.76348571428
14411.7,-5570.049199999994
14413.7,-5588.192057142851
14415.7,-5567.620628571422
14417.7,-5539.477771428565
14419.7,-5538.477771428566
14421.7,-5564.906342857136
14423.7,-5582.477771428566
14425.7,-5564.049199999993
14427.7,-5534.763485714279
14429.7,-5544.763485714278
14431.7,-5599.192057142851
14433.7,-5650.049199999992
14435.7,-5663.192057142851
14437.7,-5655.477771428565
14439.7,-5648.192057142851
14441.7,-5620.477771428565
14443.7,-5527.049199999993
14445.7,-5344.192057142851
14447.7,-5078.477771428565
14449.7,-4748.76348571428
14451.7,-4377.477771428566
14453.7,-3991.4777714285647
14455.67,-3615.6206285714225
14457.65,-3276.049199999993
14459.63,-3019.7634857142793
14461.6,-2914.7634857142793
14463.6,-3002.0491999999936
14465.6,-3255.6206285714225
14467.6,-3612.906342857136
14469.6,-4036.4777714285647
14471.6,-4518.477771428565
14473.6,-5024.763485714279
14475.6,-5469.477771428565
14477.6,-5767.334914285709
14479.6,-5905.192057142851
14481.6,-5942.906342857135
14483.6,-5937.049199999992
14485.6,-5884.6206285714225
14487.6,-5765.477771428565
14489.6,-5614.763485714279
14491.6,-5507.477771428565
14493.6,-5474.049199999994
14495.6,-5472.192057142851
14497.6,-5452.049199999993
14499.6,-5416.620628571422
14501.6,-5404.049199999993
14503.6,-5430.76348571428
14505.6,-5472.477771428565
14507.6,-5498.049199999994
14509.6,-5503.049199999994
14511.6,-5502.049199999994
14513.6,-5506.6206285714225
14515.6,-5519.192057142851
14517.6,-5531.192057142851
14519.6,-5520.334914285708
14521.6,-5476.477771428566
14523.6,-5432.763485714279
14525.6,-5436.334914285708
14527.6,-5480.477771428565
14529.6,-5506.049199999994
14531.6,-5482.6206285714225
14533.6,-5450.763485714279
14535.58,-5457.763485714279
14537.55,-5487.477771428565
14539.53,-5483.763485714278
14541.5,-5429.6206285714225
14543.5,-5370.049199999994
14545.5,-5353.334914285708
14547.5,-5370.334914285708
14549.5,-5368.763485714279
14551.5,-5319.049199999993
14553.5,-5251.477771428565
14555.5,-5216.906342857137
14557.5,-5222.477771428566
14559.5,-5225.192057142852
14561.5,-5192.049199999994
14563.5,-5148.334914285708
14565.5,-5145.334914285708
14567.5,-5186.620628571422
14569.5,-5221.334914285708
14571.5,-5214.620628571422
14573.5,-5190.906342857136
14575.5,-5191.334914285708
14577.5,-5218.6206285714225
14579.5,-5245.763485714279
14581.5,-5253.763485714278
14583.5,-5242.334914285708
14585.5,-5223.6206285714225
14587.5,-5215.049199999994
14589.5,-5219.334914285708
14591.5,-5211.906342857136
14593.5,-5172.192057142851
14595.5,-5124.477771428566
14597.5,-5116.76348571428
14599.5,-5154.334914285709
14601.5,-5185.6206285714225
14603.5,-5169.620628571422
14605.5,-5129.334914285708
14607.5,-5115.049199999993
14609.5,-5136.477771428565
14611.5,-5156.049199999994
14613.5,-5138.6206285714225
14615.47,-5093.763485714279
14617.45,-5069.192057142851
14619.42,-5093.620628571422
14621.4,-5130.6206285714225
14623.4,-5117.906342857136
14625.4,-5054.19205714285
14627.4,-5003.192057142851
14629.4,-5002.192057142851
14631.4,-5015.477771428566
14633.4,-4994.049199999994
14635.4,-4938.192057142852
14637.4,-4887.192057142851
14639.4,-4872.049199999993
14641.4,-4886.6206285714225
14643.4,-4893.049199999994
14645.4,-4861.906342857137
14647.4,-4809.763485714279
14649.4,-4779.192057142851
14651.4,-4778.477771428566
14653.4,-4763.334914285709
14655.4,-4693.477771428566
14657.4,-4589.763485714279
14659.4,-4511.334914285709
14661.4,-4483.192057142851
14663.4,-4474.906342857137
14665.4,-4451.763485714279
14667.4,-4416.192057142851
14669.4,-4392.049199999993
14671.4,-4393.620628571422
14673.4,-4411.049199999993
14675.4,-4414.906342857136
14677.4,-4388.049199999994
14679.4,-4353.6206285714225
14681.4,-4351.192057142851
14683.4,-4382.763485714279
14685.4,-4407.334914285709
14687.4,-4395.906342857137
14689.4,-4368.334914285708
14691.4,-4364.906342857136
14693.4,-4394.6206285714225
14695.38,-4423.6206285714225
14697.35,-4416.76348571428
14699.33,-4385.334914285708
14701.3,-4377.6206285714225
14703.3,-4414.334914285708
14705.3,-4455.763485714279
14707.3,-4455.763485714279
14709.3,-4431.620628571422
14711.3,-4441.334914285708
14713.3,-4500.477771428566
14715.3,-4562.906342857136
14717.3,-4589.477771428565
14719.3,-4596.763485714279
14721.3,-4623.906342857137
14723.3,-4678.620628571423
14725.3,-4736.049199999994
14727.3,-4775.76348571428
14729.3,-4801.334914285708
14731.3,-4832.6206285714225
14733.3,-4886.477771428565
14735.3,-4957.763485714279
14737.3,-5017.906342857137
14739.3,-5044.763485714279
14741.3,-5050.906342857137
14743.3,-5072.6206285714225
14745.3,-5125.763485714279
14747.3,-5183.192057142851
14749.3,-5206.049199999994
14751.3,-5195.763485714279
14753.3,-5195.906342857137
14755.3,-5233.620628571422
14757.3,-5277.906342857136
14759.3,-5281.192057142851
14761.3,-5247.334914285709
14763.3,-5226.906342857136
14765.3,-5246.477771428566
14767.3,-5274.906342857136
14769.3,-5267.192057142851
14771.3,-5221.192057142851
14773.3,-5177.763485714279
14775.28,-5171.477771428565
14777.25,-5190.906342857136
14779.22,-5197.049199999994
14781.2,-5177.6206285714225
14783.2,-5160.763485714279
14785.2,-5168.192057142851
14787.2,-5184.049199999994
14789.2,-5183.19205714285
14791.2,-5165.906342857136
14793.2,-5148.763485714279
14795.2,-5143.620628571423
14797.2,-5155.192057142851
14799.2,-5179.763485714279
14801.2,-5196.763485714278
14803.2,-5185.192057142851
14805.2,-5155.334914285708
14807.2,-5140.049199999994
14809.2,-5144.763485714279
14811.2,-5138.334914285708
14813.2,-5106.620628571422
14815.2,-5081.477771428565
14817.2,-5096.477771428566
14819.2,-5141.049199999994
14821.2,-5180.049199999994
14823.2,-5200.334914285709
14825.2,-5219.049199999994
14827.2,-5256.19205714285
14829.2,-5308.334914285708
14831.2,-5346.763485714279
14833.2,-5346.6206285714225
14835.2,-5318.763485714278
14837.2,-5300.477771428566
14839.2,-5312.477771428566
14841.2,-5336.763485714279
14843.2,-5340.906342857137
14845.2,-5317.620628571422
14847.2,-5296.763485714278
14849.2,-5309.763485714278
14851.2,-5337.763485714279
14853.2,-5329.906342857136
14855.17,-5284.906342857137
14857.15,-5258.19205714285
14859.13,-5272.334914285708
14861.1,-5290.334914285708
14863.1,-5289.334914285708
14865.1,-5289.906342857136
14867.1,-5302.049199999993
14869.1,-5308.906342857135
14871.1,-5307.192057142851
14873.1,-5309.049199999994
14875.1,-5304.477771428565
14877.1,-5268.192057142851
14879.1,-5206.763485714279
14881.1,-5160.334914285708
14883.1,-5146.763485714279
14885.1,-5143.049199999994
14887.1,-5132.76348571428
14889.1,-5128.334914285708
14891.1,-5137.906342857136
14893.1,-5151.6206285714225
14895.1,-5158.477771428565
14897.1,-5146.192057142851
14899.1,-5105.76348571428
14901.1,-5055.049199999994
14903.1,-5027.763485714279
14905.1,-5027.763485714279
14907.1,-5030.049199999993
14909.1,-5021.763485714279
14911.1,-5015.192057142851
14913.1,-5027.763485714279
14915.1,-5070.19205714285
14917.1,-5138.049199999994
14919.1,-5207.477771428566
14921.1,-5255.334914285708
14923.1,-5293.334914285709
14925.1,-5354.049199999994
14927.1,-5431.763485714278
14929.1,-5473.049199999994
14931.1,-5446.334914285708
14933.1,-5392.049199999993
14935.08,-5375.192057142851
14937.05,-5407.906342857136
14939.03,-5443.477771428566
14941.0,-5445.477771428566
14943.0,-5436.477771428565
14945.0,-5461.906342857136
14947.0,-5520.192057142851
14949.0,-5565.477771428566
14951.0,-5571.477771428566
14953.0,-5558.192057142851
14955.0,-5554.6206285714225
14957.0,-5566.477771428566
14959.0,-5581.763485714279
14961.0,-5583.192057142851
14963.0,-5561.477771428565
14965.0,-5529.76348571428
14967.0,-5515.477771428565
14969.0,-5525.763485714279
14971.0,-5535.906342857136
14973.0,-5523.334914285708
14975.0,-5505.334914285708
14977.0,-5521.049199999993
14979.0,-5578.906342857136
14981.0,-5641.477771428565
14983.0,-5672.192057142851
14985.0,-5679.477771428565
14987.0,-5695.763485714278
14989.0,-5721.620628571422
14991.0,-5711.334914285707
14993.0,-5615.192057142851
14995.0,-5423.049199999994
14997.0,-5161.620628571422
14999.0,-4854.906342857136
15001.0,-4500.192057142851
15003.0,-4093.3349142857087
15005.0,-3669.7634857142803
15007.0,-3300.9063428571367
15009.0,-3048.477771428565
15011.0,-2938.3349142857082
15013.0,-2971.6206285714225
15014.97,-3141.192057142851
15016.95,-3438.76348571428
15018.92,-3854.3349142857082
15020.9,-4353.334914285708
15022.9,-4854.906342857137
15024.9,-5266.477771428566
15026.9,-5552.477771428566
15028.9,-5740.906342857137
15030.9,-5859.049199999994
15032.9,-5893.334914285708
15034.9,-5828.763485714279
15036.9,-5702.906342857136
15038.9,-5592.334914285708
15040.9,-5545.763485714278
15042.9,-5546.763485714279
15044.9,-5548.192057142851
15046.9,-5532.334914285708
15048.9,-5524.477771428565
15050.9,-5551.906342857135
15052.9,-5600.76348571428
15054.9,-5623.6206285714225
15056.9,-5596.763485714279
15058.9,-5554.763485714279
15060.9,-5549.6206285714225
15062.9,-5584.192057142851
15064.9,-5612.906342857137
15066.9,-5604.763485714279
15068.9,-5577.334914285707
15070.9,-5568.334914285708
15072.9,-5587.477771428565
15074.9,-5600.620628571422
15076.9,-5566.6206285714225
15078.9,-5494.192057142852
15080.9,-5441.19205714285
15082.9,-5441.334914285708
15084.9,-5460.049199999994
15086.9,-5447.334914285708
15088.9,-5404.763485714279
15090.9,-5373.620628571422
15092.9,-5374.192057142851
15094.88,-5384.620628571422
15096.85,-5375.192057142851
15098.83,-5343.76348571428
15100.8,-5314.620628571423
15102.8,-5313.049199999994
15104.8,-5341.477771428565
15106.8,-5376.334914285708
15108.8,-5389.477771428565
15110.8,-5381.763485714278
15112.8,-5385.763485714279
15114.8,-5421.049199999994
15116.8,-5457.049199999994
15118.8,-5449.049199999993
15120.8,-5404.192057142851
15122.8,-5375.477771428565
15124.8,-5388.477771428565
15126.8,-5412.334914285708
15128.8,-5408.334914285708
15130.8,-5378.906342857137
15132.8,-5360.477771428565
15134.8,-5379.19205714285
15136.8,-5415.763485714279
15138.8,-5421.6206285714225
15140.8,-5381.334914285709
15142.8,-5339.906342857136
15144.8,-5343.906342857136
15146.8,-5376.049199999994
15148.8,-5381.049199999993
15150.8,-5344.477771428565
15152.8,-5309.620628571422
15154.8,-5314.334914285708
15156.8,-5341.763485714279
15158.8,-5347.906342857136
15160.8,-5322.763485714278
15162.8,-5298.906342857137
15164.8,-5304.049199999994
15166.8,-5331.334914285708
15168.8,-5353.906342857136
15170.8,-5350.049199999994
15172.8,-5320.477771428565
15174.78,-5293.906342857136
15176.75,-5298.906342857137
15178.72,-5320.334914285708
15180.7,-5311.477771428565
15182.7,-5260.6206285714225
15184.7,-5212.477771428565
15186.7,-5207.620628571422
15188.7,-5224.477771428565
15190.7,-5205.620628571422
15192.7,-5132.906342857136
15194.7,-5051.906342857136
15196.7,-5012.477771428566
15198.7,-5004.334914285709
15200.7,-4973.477771428566
15202.7,-4893.906342857137
15204.7,-4801.049199999994
15206.7,-4752.192057142851
15208.7,-4759.477771428566
15210.7,-4771.6206285714225
15212.7,-4736.334914285708
15214.7,-4672.6206285714225
15216.7,-4646.906342857137
15218.7,-4679.192057142851
15220.7,-4716.620628571423
15222.7,-4710.76348571428
15224.7,-4679.192057142851
15226.7,-4671.192057142851
15228.7,-4701.6206285714225
15230.7,-4740.6206285714225
15232.7,-4754.76348571428
15234.7,-4740.76348571428
15236.7,-4722.6206285714225
15238.7,-4724.477771428566
15240.7,-4746.192057142851
15242.7,-4762.192057142851
15244.7,-4748.906342857137
15246.7,-4716.620628571423
15248.7,-4705.76348571428
15250.7,-4738.334914285709
15252.6,-4783.906342857137
15254.6,-4795.6206285714225
15256.6,-4776.192057142851
15258.6,-4777.763485714279
15260.6,-4829.477771428565
15262.6,-4895.763485714279
15264.6,-4925.763485714279
15266.6,-4923.049199999993
15268.6,-4940.334914285709
15270.6,-5008.6206285714225
15272.6,-5095.334914285709
15274.6,-5149.334914285709
15276.6,-5169.76348571428
15278.6,-5201.906342857136
15280.6,-5268.6206285714225
15282.6,-5340.192057142851
15284.6,-5378.477771428565
15286.6,-5386.049199999994
15288.6,-5398.049199999994
15290.6,-5435.477771428565
15292.6,-5481.477771428565
15294.6,-5506.763485714279
15296.6,-5510.763485714279
15298.6,-5518.334914285708
15300.6,-5541.906342857137
15302.6,-5569.620628571422
15304.6,-5587.192057142851
15306.6,-5588.6206285714225
15308.6,-5576.906342857136
15310.6,-5565.906342857136
15312.6,-5570.477771428566
15314.6,-5583.6206285714225
15316.6,-5579.192057142851
15318.6,-5546.334914285708
15320.6,-5510.049199999994
15322.6,-5504.763485714279
15324.6,-5530.477771428565
15326.6,-5549.6206285714225
15328.6,-5537.192057142851
15330.6,-5515.906342857137
15332.5,-5523.6206285714225
15334.5,-5560.049199999993
15336.5,-5586.477771428565
15338.5,-5575.477771428565
15340.5,-5546.192057142851
15342.5,-5542.477771428566
15344.5,-5580.906342857137
15346.5,-5628.906342857136
15348.5,-5641.477771428565
15350.5,-5617.906342857136
15352.5,-5605.763485714279
15354.5,-5634.334914285709
15356.5,-5669.334914285708
15358.5,-5667.477771428565
15360.5,-5650.477771428565
15362.5,-5665.334914285708
15364.5,-5701.906342857136
15366.5,-5718.763485714279
15368.5,-5720.049199999993
15370.5,-5732.906342857136
15372.5,-5743.906342857136
15374.5,-5729.334914285707
15376.5,-5715.906342857136
15378.5,-5741.334914285708
15380.5,-5784.049199999994
15382.5,-5797.6206285714225
15384.5,-5791.620628571422
15386.5,-5813.049199999993
15388.5,-5862.906342857137
15390.5,-5897.477771428565
15392.5,-5900.477771428566
15394.5,-5892.477771428566
15396.5,-5888.334914285708
15398.5,-5892.049199999994
15400.5,-5905.763485714279
15402.5,-5915.477771428565
15404.47,-5905.906342857135
15406.45,-5895.049199999993
15408.42,-5916.049199999993
15410.4,-5965.19205714285
15412.4,-6004.334914285708
15414.4,-6008.334914285707
15416.4,-5987.192057142851
15418.4,-5967.334914285708
15420.4,-5964.763485714279
15422.4,-5971.049199999994
15424.4,-5965.192057142851
15426.4,-5942.192057142851
15428.4,-5927.192057142851
15430.4,-5949.192057142851
15432.4,-5997.763485714279
15434.4,-6024.6206285714225
15436.4,-6001.334914285708
15438.4,-5955.049199999993
15440.4,-5931.477771428565
15442.4,-5934.906342857136
15444.4,-5925.763485714279
15446.4,-5876.906342857137
15448.4,-5815.76348571428
15450.4,-5791.6206285714225
15452.4,-5809.906342857137
15454.4,-5822.6206285714225
15456.4,-5792.477771428565
15458.4,-5739.763485714279
15460.4,-5711.19205714285
15462.4,-5720.334914285708
15464.4,-5738.192057142851
15466.4,-5735.906342857137
15468.4,-5720.906342857136
15470.4,-5722.192057142851
15472.4,-5754.477771428565
15474.4,-5806.763485714278
15476.4,-5856.763485714278
15478.4,-5892.76348571428
15480.4,-5925.192057142851
15482.4,-5975.334914285709
15484.38,-6048.049199999994
15486.35,-6118.334914285708
15488.33,-6154.192057142851
15490.3,-6153.049199999994
15492.3,-6147.049199999994
15494.3,-6165.192057142851
15496.3,-6195.477771428565
15498.3,-6204.906342857136
15500.3,-6196.477771428566
15502.3,-6211.192057142852
15504.3,-6267.906342857137
15506.3,-6334.906342857136
15508.3,-6372.763485714279
15510.3,-6381.763485714279
15512.3,-6394.763485714279
15514.3,-6432.6206285714225
15516.3,-6476.477771428565
15518.3,-6487.763485714279
15520.3,-6455.477771428566
15522.3,-6412.76348571428
15524.3,-6397.049199999993
15526.3,-6403.192057142851
15528.3,-6391.19205714285
15530.3,-6340.049199999993
15532.3,-6282.334914285707
15534.3,-6271.477771428565
15536.3,-6317.477771428565
15538.3,-6374.906342857137
15540.3,-6402.477771428566
15542.3,-6415.477771428565
15544.3,-6459.477771428565
15546.3,-6540.763485714279
15548.3,-6605.906342857137
15550.3,-6595.049199999994
15552.3,-6498.763485714279
15554.3,-6349.620628571422
15556.3,-6164.334914285708
15558.3,-5918.763485714279
15560.3,-5586.334914285708
15562.3,-5182.906342857137
15564.28,-4763.6206285714225
15566.25,-4392.192057142851
15568.22,-4109.334914285708
15570.2,-3917.1920571428504
15572.2,-3810.620628571423
15574.2,-3828.192057142851
15576.2,-4027.906342857136
15578.2,-4401.477771428565
15580.2,-4858.049199999994
15582.2,-5310.049199999994
15584.2,-5732.334914285708
15586.2,-6123.76348571428
15588.2,-6449.049199999994
15590.2,-6650.192057142851
15592.2,-6707.049199999993
15594.2,-6664.763485714279
15596.2,-6592.049199999994
15598.2,-6529.049199999994
15600.2,-6478.906342857136
15602.2,-6434.477771428565
15604.2,-6399.906342857136
15606.2,-6391.334914285708
15608.2,-6419.763485714279
15610.2,-6472.620628571422
15612.2,-6518.906342857137
15614.2,-6539.334914285708
15616.2,-6544.477771428565
15618.2,-6557.192057142851
15620.2,-6579.477771428565
15622.2,-6586.19205714285
15624.2,-6555.763485714279
15626.2,-6500.192057142851
15628.2,-6459.6206285714225
15630.2,-6460.477771428565
15632.2,-6480.763485714279
15634.2,-6472.906342857136
15636.2,-6426.192057142851
15638.2,-6383.906342857136
15640.2,-6386.334914285708
15642.2,-6412.763485714279
15644.17,-6408.049199999993
15646.15,-6361.334914285708
15648.13,-6326.192057142851
15650.1,-6348.192057142851
15652.1,-6398.192057142852
15654.1,-6410.334914285709
15656.1,-6373.477771428566
15658.1,-6340.334914285708
15660.1,-6349.906342857136
15662.1,-6382.334914285708
15664.1,-6394.906342857136
15666.1,-6375.763485714279
15668.1,-6353.049199999994
15670.1,-6359.620628571422
15672.1,-6392.620628571422
15674.1,-6413.763485714278
15676.1,-6396.906342857137
15678.1,-6359.906342857137
15680.1,-6338.334914285709
15682.1,-6341.6206285714225
15684.1,-6349.049199999994
15686.1,-6340.334914285708
15688.1,-6317.906342857137
15690.1,-6302.049199999994
15692.1,-6309.192057142851
15694.1,-6334.192057142851
15696.1,-6352.620628571423
15698.1,-6344.76348571428
15700.1,-6320.6206285714225
15702.1,-6313.19205714285
15704.1,-6334.763485714279
15706.1,-6354.906342857136
15708.1,-6340.906342857136
15710.1,-6307.049199999994
15712.1,-6297.763485714279
15714.1,-6326.763485714279
15716.1,-6355.477771428565
15718.1,-6342.334914285708
15720.1,-6300.049199999994
15722.1,-6282.763485714279
15724.08,-6311.906342857136
15726.05,-6342.334914285708
15728.03,-6323.049199999994
15730.0,-6264.906342857137
15732.0,-6217.906342857137
15734.0,-6202.76348571428
15736.0,-6193.763485714279
15738.0,-6159.334914285708
15740.0,-6099.620628571422
15742.0,-6046.19205714285
15744.0,-6030.192057142851
15746.0,-6044.763485714279
15748.0,-6049.6206285714225
15750.0,-6021.763485714279
15752.0,-5982.763485714278
15754.0,-5961.334914285708
15756.0,-5950.477771428565
15758.0,-5922.906342857137
15760.0,-5872.192057142851
15762.0,-5814.763485714279
15764.0,-5769.620628571422
15766.0,-5749.477771428565
15768.0,-5752.477771428565
15770.0,-5752.049199999993
15772.0,-5724.334914285708
15774.0,-5689.19205714285
15776.0,-5686.76348571428
15778.0,-5709.192057142851
15780.0,-5704.19205714285
15782.0,-5655.334914285709
15784.0,-5609.906342857137
15786.0,-5609.620628571423
15788.0,-5636.477771428565
15790.0,-5648.477771428565
15792.0,-5638.477771428565
15794.0,-5635.477771428566
15796.0,-5659.6206285714225
15798.0,-5696.049199999993
15800.0,-5713.763485714279
15802.0,-5702.192057142851
15803.97,-5681.906342857136
15805.95,-5679.192057142851
15807.92,-5694.049199999993
15809.9,-5702.19205714285
15811.9,-5690.906342857136
15813.9,-5678.763485714279
15815.9,-5690.192057142851
15817.9,-5723.477771428565
15819.9,-5757.906342857136
15821.9,-5780.334914285708
15823.9,-5794.334914285708
15825.9,-5811.906342857136
15827.9,-5846.334914285708
15829.9,-5898.334914285709
15831.9,-5947.334914285708
15833.9,-5969.477771428565
15835.9,-5971.906342857137
15837.9,-5990.6206285714225
15839.9,-6043.906342857137
15841.9,-6097.334914285708
15843.9,-6102.620628571422
15845.9,-6065.763485714279
15847.9,-6043.906342857137
15849.9,-6065.763485714279
15851.9,-6094.192057142851
15853.9,-6079.192057142851
15855.9,-6027.6206285714225
15857.9,-5997.049199999993
15859.9,-6021.049199999994
15861.9,-6058.763485714279
15863.9,-6055.19205714285
15865.9,-6027.763485714279
15867.9,-6031.477771428566
15869.9,-6060.906342857136
15871.9,-6073.334914285708
15873.9,-6073.049199999993
15875.9,-6090.906342857136
15877.9,-6115.477771428565
15879.9,-6117.620628571422
15881.9,-6110.906342857137
15883.88,-6126.477771428566
15885.85,-6151.334914285709
15887.83,-6142.763485714279
15889.8,-6095.192057142851
15891.8,-6049.763485714279
15893.8,-6035.19205714285
15895.8,-6036.192057142851
15897.8,-6029.049199999993
15899.8,-6012.049199999994
15901.8,-6001.6206285714225
15903.8,-6016.477771428566
15905.8,-6049.334914285708
15907.8,-6056.477771428565
15909.8,-6014.763485714279
15911.8,-5968.763485714279
15913.8,-5970.763485714279
15915.8,-5998.763485714279
15917.8,-5992.477771428565
15919.8,-5948.049199999993
15921.8,-5919.620628571422
15923.8,-5937.049199999993
15925.8,-5970.19205714285
15927.8,-5981.049199999994
15929.8,-5973.763485714279
15931.8,-5974.763485714279
15933.8,-5991.477771428566
15935.8,-6013.334914285709
15937.8,-6030.334914285708
15939.8,-6032.6206285714225
15941.8,-6012.334914285709
15943.8,-5983.049199999994
15945.8,-5977.334914285709
15947.8,-6005.049199999994
15949.8,-6027.192057142851
15951.8,-6001.763485714279
15953.8,-5949.6206285714225
15955.8,-5932.334914285709
15957.8,-5959.906342857136
15959.8,-5974.906342857136
15961.8,-5940.334914285708
15963.78,-5889.049199999994
15965.75,-5868.192057142851
15967.72,-5877.620628571422
15969.7,-5880.334914285708
15971.7,-5847.6206285714225
15973.7,-5788.334914285708
15975.7,-5739.334914285708
15977.7,-5723.192057142851
15979.7,-5720.763485714278
15981.7,-5702.049199999993
15983.7,-5666.6206285714225
15985.7,-5640.906342857136
15987.7,-5644.192057142851
15989.7,-5669.763485714279
15991.7,-5692.763485714278
15993.7,-5695.19205714285
15995.7,-5683.906342857135
15997.7,-5680.763485714278
15999.7,-5694.477771428566
16001.7,-5707.763485714279
16003.7,-5695.049199999994
16005.7,-5656.192057142851
16007.7,-5627.049199999993
16009.7,-5638.906342857136
16011.7,-5671.477771428565
16013.7,-5675.049199999994
16015.7,-5638.477771428566
16017.7,-5603.763485714279
16019.7,-5608.477771428565
16021.7,-5636.334914285708
16023.7,-5638.049199999994
16025.7,-5596.334914285708
16027.7,-5553.620628571423
16029.7,-5560.477771428566
16031.7,-5605.906342857136
16033.7,-5628.192057142851
16035.7,-5598.477771428565
16037.7,-5557.906342857135
16039.7,-5558.477771428565
16041.7,-5590.6206285714225
16043.67,-5598.906342857136
16045.65,-5559.192057142851
16047.63,-5509.049199999994
16049.6,-5489.334914285708
16051.6,-5489.049199999994
16053.6,-5468.192057142851
16055.6,-5416.477771428565
16057.6,-5362.6206285714225
16059.6,-5337.763485714279
16061.6,-5342.763485714278
16063.6,-5347.6206285714225
16065.6,-5318.334914285708
16067.6,-5251.049199999993
16069.6,-5177.334914285708
16071.6,-5125.906342857136
16073.6,-5088.192057142851
16075.6,-5035.6206285714225
16077.6,-4965.763485714279
16079.6,-4913.477771428566
16081.6,-4915.192057142851
16083.6,-4967.6206285714225
16085.6,-5027.049199999994
16087.6,-5053.334914285709
16089.6,-5056.477771428566
16091.6,-5084.763485714278
16093.6,-5154.334914285708
16095.6,-5213.6206285714225
16097.6,-5209.477771428565
16099.6,-5164.19205714285
16101.6,-5142.477771428566
16103.6,-5159.6206285714225
16105.6,-5172.620628571422
16107.6,-5152.763485714278
16109.6,-5120.192057142851
16111.6,-5107.6206285714225
16113.6,-5124.049199999993
16115.6,-5153.763485714279
16117.6,-5172.477771428566
16119.6,-5166.6206285714225
16121.6,-5150.906342857137
16123.58,-5154.049199999994
16125.55,-5177.477771428565
16127.53,-5185.334914285708
16129.5,-5152.334914285708
16131.5,-5101.6206285714225
16133.5,-5075.049199999994
16135.5,-5081.334914285708
16137.5,-5092.049199999994
16139.5,-5078.76348571428
16141.5,-5048.763485714279
16143.5,-5043.049199999994
16145.5,-5089.19205714285
16147.5,-5158.763485714279
16149.5,-5196.192057142851
16151.5,-5193.620628571422
16153.5,-5198.620628571422
16155.5,-5239.049199999994
16157.5,-5277.334914285708
16159.5,-5253.763485714279
16161.5,-5148.334914285708
16163.5,-4984.477771428565
16165.5,-4785.906342857136
16167.5,-4544.6206285714225
16169.5,-4229.049199999994
16171.5,-3829.9063428571367
16173.5,-3397.3349142857082
16175.5,-3009.6206285714225
16177.5,-2703.9063428571367
16179.5,-2470.192057142851
16181.5,-2319.6206285714225
16183.5,-2313.192057142851
16185.5,-2496.9063428571367
16187.5,-2839.477771428565
16189.5,-3258.477771428565
16191.5,-3686.192057142851
16193.5,-4091.6206285714225
16195.5,-4452.334914285708
16197.5,-4735.6206285714225
16199.5,-4913.049199999994
16201.4,-4976.049199999994
16203.4,-4943.192057142851
16205.4,-4864.906342857137
16207.4,-4799.906342857137
16209.4,-4765.906342857137
16211.4,-4731.76348571428
16213.4,-4674.477771428566
16215.4,-4619.334914285709
16217.4,-4606.334914285709
16219.4,-4636.477771428566
16221.4,-4668.192057142851
16223.4,-4663.049199999994
16225.4,-4630.906342857137
16227.4,-4618.192057142851
16229.4,-4645.334914285708
16231.4,-4673.049199999993
16233.4,-4652.049199999993
16235.4,-4595.334914285708
16237.4,-4568.6206285714225
16239.4,-4601.334914285708
16241.4,-4641.763485714279
16243.4,-4628.334914285708
16245.4,-4575.334914285708
16247.4,-4546.334914285708
16249.4,-4560.763485714279
16251.4,-4574.763485714279
16253.4,-4552.763485714279
16255.4,-4513.049199999994
16257.4,-4493.906342857136
16259.4,-4502.6206285714225
16261.4,-4515.763485714279
16263.4,-4511.620628571422
16265.4,-4489.334914285708
16267.4,-4460.620628571422
16269.4,-4437.049199999994
16271.4,-4420.192057142851
16273.4,-4400.477771428565
16275.4,-4364.477771428565
16277.4,-4312.334914285708
16279.4,-4264.763485714279
16281.3,-4243.334914285708
16283.3,-4239.6206285714225
16285.3,-4219.763485714279
16287.3,-4168.763485714279
16289.3,-4116.763485714278
16291.3,-4099.477771428565
16293.3,-4104.334914285708
16295.3,-4085.763485714279
16297.3,-4033.477771428565
16299.3,-3993.6206285714225
16301.3,-4008.0491999999936
16303.3,-4050.7634857142793
16305.3,-4053.192057142851
16307.3,-3992.4777714285656
16309.3,-3919.9063428571367
16311.3,-3885.620628571423
16313.3,-3872.76348571428
16315.3,-3834.477771428565
16317.3,-3765.7634857142793
16319.3,-3704.334914285708
16321.3,-3676.0491999999936
16323.3,-3668.906342857136
16325.3,-3655.049199999993
16327.3,-3621.1920571428504
16329.3,-3576.9063428571367
16331.3,-3543.3349142857082
16333.3,-3534.049199999994
16335.3,-3542.6206285714225
16337.3,-3547.192057142851
16339.3,-3529.049199999994
16341.3,-3490.9063428571367
16343.3,-3453.049199999994
16345.3,-3426.334914285708
16347.3,-3393.7634857142793
16349.3,-3329.1920571428514
16351.3,-3235.4777714285656
16353.3,-3151.4777714285656
16355.3,-3107.3349142857082
16357.3,-3082.7634857142793
16359.3,-3032.906342857136
16361.2,-2954.6206285714225
16363.2,-2895.334914285708
16365.2,-2885.6206285714225
16367.2,-2894.192057142851
16369.2,-2867.477771428565
16371.2,-2799.049199999994
16373.2,-2741.3349142857087
16375.2,-2736.192057142851
16377.2,-2750.192057142851
16379.2,-2720.0491999999936
16381.2,-2651.477771428565
16383.2,-2605.906342857136
16385.2,-2594.477771428565
16387.2,-2570.3349142857082
16389.2,-2522.76348571428
16391.2,-2488.049199999994
16393.2,-2469.334914285708
16395.2,-2433.76348571428
16397.2,-2383.7634857142793
16399.2,-2360.049199999994
16401.2,-2368.192057142851
16403.2,-2364.3349142857082
16405.2,-2326.6206285714225
16407.2,-2288.477771428565
16409.2,-2278.049199999994
16411.2,-2275.477771428565
16413.2,-2252.6206285714225
16415.2,-2211.9063428571367
16417.2,-2171.620628571423
16419.2,-2147.3349142857082
16421.2,-2143.3349142857082
16423.2,-2139.192057142851
16425.2,-2111.3349142857082
16427.2,-2074.76348571428
16429.2,-2066.3349142857082
16431.2,-2085.3349142857082
16433.2,-2092.192057142851
16435.2,-2066.049199999994
16437.2,-2031.4777714285651
16439.2,-2023.3349142857082
16441.1,-2044.9063428571365
16443.1,-2067.6206285714225
16445.1,-2065.9063428571367
16447.1,-2047.7634857142793
16449.1,-2046.334914285708
16451.1,-2079.049199999994
16453.1,-2122.4777714285656
16455.1,-2142.4777714285656
16457.1,-2137.6206285714225
16459.1,-2134.76348571428
16461.1,-2152.049199999994
16463.1,-2184.049199999994
16465.1,-2209.049199999994
16467.1,-2204.4777714285656
16469.1,-2173.76348571428
16471.1,-2153.9063428571367
16473.1,-2171.192057142851
16475.1,-2199.192057142851
16477.1,-2191.477771428565
16479.1,-2148.049199999994
16481.1,-2115.477771428565
16483.1,-2119.7634857142793
16485.1,-2129.192057142851
16487.1,-2099.76348571428
16489.1,-2037.4777714285656
16491.1,-1990.1920571428511
16493.1,-1984.0491999999936
16495.1,-1997.334914285708
16497.1,-1996.6206285714225
16499.1,-1975.7634857142796
16501.1,-1952.7634857142798
16503.1,-1945.7634857142793
16505.1,-1954.6206285714225
16507.1,-1957.4777714285651
16509.1,-1929.049199999994
16511.1,-1874.3349142857082
16513.1,-1830.7634857142796
16515.1,-1821.7634857142798
16517.1,-1822.4777714285651
16519.1,-1794.4777714285651
16521.0,-1743.4777714285653
16523.0,-1713.4777714285653
16525.0,-1722.906342857137
16527.0,-1735.1920571428514
16529.0,-1705.192057142851
16531.0,-1634.6206285714225
16533.0,-1562.0491999999938
16535.0,-1511.6206285714225
16537.0,-1470.334914285708
16539.0,-1411.0491999999938
16541.0,-1328.049199999994
16543.0,-1251.049199999994
16545.0,-1219.1920571428511
16547.0,-1232.9063428571367
16549.0,-1245.3349142857082
16551.0,-1217.7634857142798
16553.0,-1169.049199999994
16555.0,-1150.3349142857082
16557.0,-1174.049199999994
16559.0,-1194.7634857142798
16561.0,-1169.6206285714225
16563.0,-1116.906342857137
16565.0,-1091.3349142857082
16567.0,-1108.6206285714225
16569.0,-1122.7634857142798
16571.0,-1089.9063428571367
16573.0,-1027.6206285714227
16575.0,-989.6206285714227
16577.0,-997.3349142857082
16579.0,-1021.6206285714226
16581.0,-1025.1920571428511
16583.0,-1000.6206285714226
16585.0,-971.049199999994
16587.0,-962.1920571428511
16589.0,-971.1920571428511
16591.0,-963.9063428571369
16592.97,-917.1920571428511
16594.95,-852.9063428571369
16596.93,-817.192057142851
16598.9,-826.3349142857082
16600.9,-845.6206285714225
16602.9,-829.7634857142797
16604.9,-782.7634857142797
16606.9,-754.6206285714225
16608.9,-771.9063428571368
16610.9,-795.7634857142796
16612.9,-773.3349142857082
16614.9,-710.049199999994
16616.9,-660.9063428571369
16618.9,-657.7634857142798
16620.9,-672.049199999994
16622.9,-659.4777714285653
16624.9,-619.9063428571369
16626.9,-590.7634857142797
16628.9,-589.0491999999939
16630.9,-587.3349142857082
16632.9,-551.7634857142798
16634.9,-482.62062857142257
16636.9,-410.90634285713685
16638.9,-366.7634857142797
16640.9,-351.62062857142257
16642.9,-337.7634857142797
16644.9,-303.04919999999396
16646.9,-259.62062857142257
16648.9,-236.7634857142797
16650.9,-239.19205714285116
16652.9,-239.47777142856546
16654.9,-210.04919999999402
16656.9,-157.47777142856543
16658.9,-119.90634285713686
16660.9,-125.19205714285114
16662.9,-151.19205714285113
16664.9,-147.76348571427974
16666.9,-103.76348571427971
16668.9,-65.76348571427974
16670.9,-72.90634285713686
16672.88,-100.76348571427971
16674.85,-94.6206285714226
16676.82,-42.620628571422586
16678.8,12.522228571434557
16680.8,33.807942857148845
16682.8,37.379371428577414
16684.8,67.23651428572026
16686.8,135.09365714286312
16688.8,202.3793714285774
16690.8,225.23651428572026
16692.8,207.23651428572026
16694.8,194.95080000000598
16696.8,219.6650857142917
16698.8,258.23651428572026
16700.8,265.0936571428631
16702.8,233.09365714286312
16704.8,201.80794285714884
16706.8,204.80794285714884
16708.8,229.80794285714884
16710.8,240.09365714286315
16712.8,222.0936571428631
16714.8,201.95080000000598
16716.8,217.6650857142917
16718.8,276.37937142857743
16720.8,342.950800000006
16722.8,377.66508571429165
16724.8,382.950800000006
16726.8,398.0936571428631
16728.8,443.6650857142917
16730.8,493.23651428572026
16732.8,513.6650857142916
16734.8,513.0936571428631
16736.8,533.5222285714345
16738.8,601.5222285714345
16740.8,692.9508000000059
16742.8,756.0936571428631
16744.8,774.950800000006
16746.8,790.6650857142916
16748.8,844.2365142857203
16750.8,918.6650857142918
16752.78,962.950800000006
16754.75,960.5222285714344
16756.72,951.2365142857202
16758.7,981.8079428571486
16760.7,1047.093657142863
16762.7,1094.8079428571486
16764.7,1095.093657142863
16766.7,1080.6650857142915
16768.7,1099.8079428571486
16770.7,1154.6650857142915
16772.7,1211.2365142857202
16774.7,1244.9508000000058
16776.7,1262.950800000006
16778.7,1291.093657142863
16780.7,1342.093657142863
16782.7,1395.950800000006
16784.7,1424.5222285714344
16786.7,1431.093657142863
16788.7,1448.0936571428629
16790.7,1498.6650857142915
16792.7,1571.950800000006
16794.7,1634.3793714285773
16796.7,1663.6650857142915
16798.7,1673.5222285714342
16800.7,1695.8079428571484
16802.7,1738.0936571428629
16804.7,1773.3793714285773
16806.7,1772.950800000006
16808.7,1743.5222285714347
16810.7,1726.093657142863
16812.7,1746.8079428571489
16814.7,1774.5222285714347
16816.7,1758.093657142863
16818.7,1703.093657142863
16820.7,1668.8079428571486
16822.7,1681.379371428577
16824.7,1701.6650857142915
16826.7,1690.2365142857202
16828.7,1661.2365142857202
16830.7,1655.2365142857202
16832.68,1686.5222285714344
16834.65,1730.5222285714342
16836.63,1754.379371428577
16838.6,1748.379371428577
16840.6,1731.8079428571486
16842.6,1729.3793714285773
16844.6,1743.3793714285773
16846.6,1752.2365142857202
16848.6,1739.0936571428629
16850.6,1717.5222285714344
16852.6,1722.2365142857202
16854.6,1771.8079428571489
16856.6,1844.093657142863
16858.6,1897.23651428572
16860.6,1917.093657142863
16862.6,1935.5222285714344
16864.6,1986.5222285714347
16866.6,2055.23651428572
16868.6,2090.807942857149
16870.6,2068.950800000006
16872.6,2021.6650857142918
16874.6,1999.3793714285773
16876.6,2009.950800000006
16878.6,2011.950800000006
16880.6,1982.3793714285773
16882.6,1970.5222285714344
16884.6,2046.3793714285773
16886.6,2213.5222285714344
16888.6,2427.950800000006
16890.6,2683.6650857142913
16892.6,3012.8079428571486
16894.6,3415.093657142863
16896.6,3844.6650857142918
16898.6,4257.093657142863
16900.6,4625.950800000006
16902.6,4915.093657142863
16904.6,5074.093657142863
16906.6,5078.23651428572
16908.6,4949.093657142863
16910.6,4714.3793714285775
16912.57,4377.093657142863
16914.55,3952.6650857142918
16916.53,3505.9508000000055
16918.5,3117.379371428577
16920.5,2829.379371428577
16922.5,2636.8079428571486
16924.5,2515.379371428577
16926.5,2457.2365142857197
16928.5,2477.23651428572
16930.5,2567.9508000000055
16932.5,2671.5222285714344
16934.5,2732.950800000006
16936.5,2761.093657142863
16938.5,2802.23651428572
16940.5,2872.23651428572
16942.5,2942.950800000006
16944.5,2984.23651428572
16946.5,3000.6650857142918
16948.5,3027.3793714285775
16950.5,3089.093657142863
16952.5,3166.6650857142913
16954.5,3215.522228571434
16956.5,3218.9508000000055
16958.5,3206.665085714291
16960.5,3215.8079428571486
16962.5,3245.807942857149
16964.5,3265.522228571434
16966.5,3256.522228571434
16968.5,3236.950800000006
16970.5,3238.2365142857197
16972.5,3269.5222285714344
16974.5,3312.093657142863
16976.5,3344.6650857142918
16978.5,3363.093657142863
16980.5,3381.5222285714344
16982.5,3419.3793714285775
16984.5,3475.6650857142913
16986.5,3519.2365142857197
16988.5,3523.6650857142913
16990.5,3511.8079428571486
16992.47,3533.8079428571486
16994.45,3595.379371428577
16996.43,3645.3793714285766
16998.4,3649.6650857142918
17000.4,3637.522228571434
17002.4,3656.093657142863
17004.4,3706.0936571428624
17006.4,3746.9508000000055
17008.4,3754.2365142857197
17010.4,3750.379371428577
17012.4,3773.807942857148
17014.4,3831.665085714291
17016.4,3893.6650857142913
17018.4,3928.807942857148
17020.4,3937.807942857148
17022.4,3945.6650857142918
17024.4,3970.093657142863
17026.4,4002.6650857142918
17028.4,4022.0936571428633
17030.4,4023.23651428572
17032.4,4021.8079428571486
17034.4,4031.9508000000055
17036.4,4051.6650857142918
17038.4,4067.3793714285775
17040.4,4068.5222285714344
17042.4,4062.950800000006
17044.4,4078.807942857149
17046.4,4135.807942857148
17048.4,4215.522228571434
17050.4,4278.665085714291
17052.4,4315.3793714285775
17054.4,4356.665085714291
17056.4,4428.3793714285775
17058.4,4507.665085714291
17060.4,4544.236514285721
17062.4,4526.950800000006
17064.4,4507.236514285721
17066.4,4535.23651428572
17068.4,4593.665085714291
17070.4,4627.950800000005
17072.38,4629.093657142863
17074.35,4643.950800000006
17076.32,4705.522228571434
17078.3,4790.093657142863
17080.3,4849.807942857149
17082.3,4868.522228571435
17084.3,4876.665085714292
17086.3,4911.23651428572
17088.3,4970.950800000005
17090.3,5022.379371428577
17092.3,5045.807942857149
17094.3,5059.093657142863
17096.3,5093.807942857149
17098.3,5157.807942857149
17100.3,5222.665085714291
17102.3,5254.665085714291
17104.3,5259.23651428572
17106.3,5279.236514285721
17108.3,5341.093657142863
17110.3,5421.379371428577
17112.3,5475.23651428572
17114.3,5488.665085714291
17116.3,5494.3793714285775
17118.3,5529.379371428577
17120.3,5580.807942857149
17122.3,5598.093657142863
17124.3,5565.950800000006
17126.3,5533.665085714291
17128.3,5554.807942857148
17130.3,5620.665085714292
17132.3,5675.665085714291
17134.3,5686.807942857148
17136.3,5679.950800000006
17138.3,5699.807942857149
17140.3,5747.522228571434
17142.3,5777.665085714291
17144.3,5759.093657142862
17146.3,5716.236514285721
17148.3,5698.3793714285775
17150.3,5720.3793714285775
17152.28,5752.66508571429
17154.25,5763.379371428577
17156.22,5754.950800000006
17158.2,5752.379371428577
17160.2,5768.807942857147
17162.2,5791.5222285714335
17164.2,5797.522228571434
17166.2,5775.950800000005
17168.2,5741.807942857147
17170.2,5725.950800000005
17172.2,5744.665085714292
17174.2,5777.950800000006
17176.2,5790.093657142863
17178.2,5777.379371428577
17180.2,5776.950800000004
17182.2,5811.807942857148
17184.2,5848.522228571434
17186.2,5837.522228571434
17188.2,5781.665085714291
17190.2,5735.093657142863
17192.2,5734.665085714292
17194.2,5754.807942857148
17196.2,5744.23651428572
17198.2,5696.093657142863
17200.2,5657.665085714291
17202.2,5663.522228571434
17204.2,5688.379371428577
17206.2,5683.807942857148
17208.2,5644.3793714285775
17210.2,5613.093657142863
17212.2,5626.950800000006
17214.2,5672.807942857149
17216.2,5704.379371428577
17218.2,5696.379371428577
17220.2,5671.23651428572
17222.2,5665.236514285721
17224.2,5681.5222285714335
17226.2,5689.950800000006
17228.2,5668.665085714291
17230.2,5633.522228571434
17232.18,5624.950800000006
17234.15,5663.093657142863
17236.13,5722.807942857148
17238.1,5761.807942857149
17240.1,5770.950800000006
17242.1,5781.950800000006
17244.1,5824.522228571434
17246.1,5884.3793714285775
17248.1,5917.379371428577
17250.1,5907.379371428577
17252.1,5892.379371428577
17254.1,5913.665085714291
17256.1,5956.665085714291
17258.1,5971.950800000006
17260.1,5944.665085714291
17262.1,5911.522228571434
17264.1,5909.379371428577
17266.1,5932.236514285721
17268.1,5948.093657142863
17270.1,5944.665085714291
17272.1,5947.093657142863
17274.1,5988.093657142862
17276.1,6067.522228571434
17278.1,6147.3793714285775
17280.1,6191.665085714291
17282.1,6207.093657142863
17284.1,6232.522228571434
17286.1,6285.23651428572
17288.1,6337.522228571434
17290.1,6354.522228571434
17292.1,6340.665085714291
17294.1,6331.665085714291
17296.1,6349.522228571434
17298.1,6377.3793714285775
17300.1,6383.3793714285775
17302.1,6363.093657142862
17304.1,6346.093657142862
17306.1,6355.950800000006
17308.1,6381.379371428577
17310.1,6393.950800000006
17312.07,6380.950800000006
17314.05,6354.950800000006
17316.03,6340.522228571435
17318.0,6351.807942857147
17320.0,6374.807942857148
17322.0,6379.236514285721
17324.0,6359.093657142863
17326.0,6348.093657142863
17328.0,6376.23651428572
17330.0,6423.5222285714335
17332.0,6442.950800000005
17334.0,6424.093657142862
17336.0,6409.379371428577
17338.0,6437.23651428572
17340.0,6487.5222285714335
17342.0,6508.093657142862
17344.0,6487.950800000005
17346.0,6470.093657142863
17348.0,6491.807942857149
17350.0,6541.665085714292
17352.0,6583.950800000005
17354.0,6601.23651428572
17356.0,6605.093657142863
17358.0,6615.807942857148
17360.0,6639.950800000005
17362.0,6663.522228571434
17364.0,6663.3793714285775
17366.0,6630.665085714291
17368.0,6591.093657142863
17370.0,6584.950800000006
17372.0,6614.093657142863
17374.0,6633.807942857148
17376.0,6615.093657142862
17378.0,6585.950800000006
17380.0,6591.522228571435
17382.0,6633.522228571435
17384.0,6667.522228571434
17386.0,6662.379371428577
17388.0,6646.093657142863
17390.0,6664.950800000005
17391.97,6709.950800000006
17393.95,6735.093657142864
17395.93,6738.236514285721
17397.9,6757.5222285714335
17399.9,6800.379371428577
17401.9,6840.950800000005
17403.9,6870.3793714285775
17405.9,6894.3793714285775
17407.9,6900.093657142863
17409.9,6873.950800000006
17411.9,6839.236514285721
17413.9,6834.807942857149
17415.9,6859.950800000005
17417.9,6880.807942857149
17419.9,6887.093657142863
17421.9,6903.665085714291
17423.9,6944.379371428577
17425.9,6994.807942857148
17427.9,7033.807942857149
17429.9,7046.950800000006
17431.9,7036.66508571429
17433.9,7034.379371428577
17435.9,7065.950800000006
17437.9,7107.950800000005
17439.9,7114.807942857149
17441.9,7085.807942857148
17443.9,7065.665085714291
17445.9,7080.807942857148
17447.9,7105.66508571429
17449.9,7104.23651428572
17451.9,7081.665085714291
17453.9,7074.950800000006
17455.9,7103.3793714285775
17457.9,7148.093657142863
17459.9,7176.522228571434
17461.9,7177.665085714291
17463.9,7171.236514285721
17465.9,7181.093657142864
17467.9,7203.379371428578
17469.9,7211.665085714292
17471.88,7193.522228571434
17473.85,7165.66508571429
17475.82,7154.665085714291
17477.8,7172.950800000005
17479.8,7209.379371428577
17481.8,7240.093657142862
17483.8,7255.23651428572
17485.8,7273.379371428577
17487.8,7317.807942857148
17489.8,7382.23651428572
17491.8,7435.093657142862
17493.8,7457.5222285714335
17495.8,7463.522228571434
17497.8,7478.379371428577
17499.8,7503.236514285719
17501.8,7514.236514285719
17503.8,7495.379371428577
17505.8,7461.950800000005
17507.8,7446.5222285714335
17509.8,7464.093657142863
17511.8,7493.522228571433
17513.8,7500.950800000005
17515.8,7487.950800000005
17517.8,7495.807942857147
17519.8,7543.66508571429
17521.8,7587.379371428577
17523.8,7577.379371428577
17525.8,7532.23651428572
17527.8,7510.093657142863
17529.8,7527.3793714285775
17531.8,7551.23651428572
17533.8,7556.5222285714335
17535.8,7555.379371428577
17537.8,7575.5222285714335
17539.8,7628.093657142863
17541.8,7695.093657142863
17543.8,7743.3793714285775
17545.8,7757.5222285714335
17547.8,7757.093657142863
17549.8,7773.23651428572
17551.78,7809.950800000006
17553.75,7838.5222285714335
17555.72,7836.807942857149
17557.7,7820.522228571434
17559.7,7822.950800000006
17561.7,7853.379371428577
17563.7,7889.950800000005
17565.7,7906.807942857148
17567.7,7900.950800000005
17569.7,7897.807942857149
17571.7,7926.3793714285775
17573.7,7978.379371428577
17575.7,8011.093657142863
17577.7,8007.093657142863
17579.7,8004.807942857148
17581.7,8045.807942857148
17583.7,8114.23651428572
17585.7,8160.093657142863
17587.7,8168.093657142863
17589.7,8172.807942857148
17591.7,8204.950800000006
17593.7,8246.093657142863
17595.7,8249.807942857147
17597.7,8200.379371428577
17599.7,8132.093657142862
17601.7,8085.5222285714335
17603.7,8060.807942857148
17605.7,8027.236514285719
17607.7,7972.379371428577
17609.7,7922.950800000005
17611.7,7914.665085714291
17613.7,7951.522228571434
17615.7,8002.950800000006
17617.7,8035.093657142863
17619.7,8042.665085714291
17621.7,8049.665085714291
17623.7,8077.522228571434
17625.7,8112.522228571434
17627.7,8116.093657142863
17629.7,8075.522228571434
17631.68,8026.807942857149
17633.65,8013.236514285721
17635.63,8032.665085714292
17637.6,8043.236514285721
17639.6,8017.3793714285775
17641.6,7977.807942857149
17643.6,7970.23651428572
17645.6,8004.236514285721
17647.6,8035.950800000006
17649.6,8022.807942857149
17651.6,7982.093657142864
17653.6,7968.093657142863
17655.6,7992.522228571434
17657.6,8002.807942857149
17659.6,7956.950800000006
17661.6,7887.093657142863
17663.6,7857.950800000006
17665.6,7885.23651428572
17667.6,7934.950800000005
17669.6,7991.236514285719
17671.6,8086.379371428577
17673.6,8261.950800000006
17675.6,8528.093657142863
17677.6,8864.093657142863
17679.6,9240.093657142863
17681.6,9628.950800000006
17683.6,10013.236514285718
17685.6,10386.522228571434
17687.6,10730.807942857147
17689.6,10984.807942857147
17691.6,11067.665085714292
17693.6,10958.093657142861
17695.6,10718.950800000004
17697.6,10411.66508571429
17699.6,10029.093657142861
17701.6,9558.522228571435
17703.6,9070.950800000006
17705.6,8684.093657142863
17707.6,8449.23651428572
17709.6,8321.807942857147
17711.57,8240.23651428572
17713.55,8193.665085714292
17715.53,8203.807942857147
17717.5,8269.093657142863
17719.5,8346.665085714292
17721.5,8388.80794285715
17723.5,8386.80794285715
17725.5,8376.665085714292
17727.5,8395.093657142863
17729.5,8433.665085714292
17731.5,8450.379371428578
17733.5,8427.950800000006
17735.5,8398.950800000006
17737.5,8404.950800000006
17739.5,8446.80794285715
17741.5,8486.522228571434
17743.5,8490.80794285715
17745.5,8464.66508571429
17747.5,8442.093657142865
17749.5,8445.093657142863
17751.5,8461.665085714292
17753.5,8465.093657142863
17755.5,8449.807942857147
17757.5,8439.950800000006
17759.5,8462.093657142863
17761.5,8512.80794285715
17763.5,8557.80794285715
17765.5,8568.093657142863
17767.5,8557.665085714292
17769.5,8571.093657142863
17771.5,8623.522228571434
17773.5,8670.807942857147
17775.5,8667.522228571434
17777.5,8637.093657142863
17779.5,8640.522228571435
17781.5,8683.950800000006
17783.5,8711.23651428572
17785.5,8691.23651428572
17787.5,8665.80794285715
17789.5,8690.522228571434
17791.47,8759.80794285715
17793.45,8816.66508571429
17795.43,8826.950800000006
17797.4,8814.379371428577
17799.4,8819.379371428577
17801.4,8845.379371428577
17803.4,8862.950800000006
17805.4,8852.23651428572
17807.4,8826.379371428577
17809.4,8818.23651428572
17811.4,8851.522228571434
17813.4,8917.093657142863
17815.4,8978.665085714292
17817.4,9010.522228571434
17819.4,9024.379371428577
17821.4,9048.522228571434
17823.4,9085.093657142863
17825.4,9104.379371428578
17827.4,9082.665085714292
17829.4,9038.80794285715
17831.4,9020.23651428572
17833.4,9050.23651428572
17835.4,9099.379371428578
17837.4,9125.23651428572
17839.4,9125.80794285715
17841.4,9136.379371428577
17843.4,9177.66508571429
17845.4,9227.950800000006
17847.4,9252.522228571435
17849.4,9249.950800000006
17851.4,9254.093657142863
17853.4,9290.093657142863
17855.4,9341.807942857147
17857.4,9373.807942857147
17859.4,9376.950800000006
17861.4,9376.950800000006
17863.4,9398.522228571434
17865.4,9434.950800000006
17867.4,9459.950800000006
17869.4,9462.379371428578
17871.38,9459.093657142863
17873.35,9472.950800000006
17875.32,9507.950800000006
17877.3,9548.522228571435
17879.3,9575.522228571434
17881.3,9583.23651428572
17883.3,9588.093657142863
17885.3,9614.80794285715
17887.3,9666.23651428572
17889.3,9714.665085714292
17891.3,9735.80794285715
17893.3,9744.950800000006
17895.3,9784.379371428577
17897.3,9865.66508571429
17899.3,9938.236514285718
17901.3,9949.236514285718
17903.3,9922.379371428577
17905.3,9921.093657142863
17907.3,9944.665085714292
17909.3,9937.236514285722
17911.3,9891.23651428572
17913.3,9858.80794285715
17915.3,9864.807942857147
17917.3,9886.665085714292
17919.3,9910.80794285715
17921.3,9945.23651428572
17923.3,9983.522228571434
17925.3,10006.950800000006
17927.3,10018.23651428572
17929.3,10034.950800000006
17931.3,10052.23651428572
17933.3,10047.379371428577
17935.3,10019.093657142863
17937.3,9990.093657142863
17939.3,9975.236514285722
17941.3,9974.66508571429
17943.3,9982.093657142861
17945.3,9979.379371428575
17947.3,9954.093657142863
17949.3,9930.665085714292
17951.28,9942.379371428577
17953.25,9972.80794285715
17955.22,9973.80794285715
17957.2,9938.093657142865
17959.2,9910.807942857147
17961.2,9921.807942857147
17963.2,9943.522228571434
17965.2,9930.522228571435
17967.2,9882.093657142863
17969.2,9839.950800000006
17971.2,9831.23651428572
17973.2,9833.379371428577
17975.2,9806.23651428572
17977.2,9746.807942857147
17979.2,9693.522228571434
17981.2,9673.950800000006
17983.2,9669.950800000006
17985.2,9647.950800000006
17987.2,9604.665085714292
17989.2,9562.66508571429
17991.2,9537.379371428577
17993.2,9527.950800000006
17995.2,9525.80794285715
17997.2,9516.66508571429
17999.2,9489.522228571435
18001.2,9456.093657142863
18003.2,9447.379371428578
18005.2,9473.80794285715
18007.2,9501.80794285715
18009.2,9492.379371428577
18011.2,9458.950800000006
18013.2,9456.093657142861
18015.2,9500.665085714292
18017.2,9540.379371428577
18019.2,9526.522228571434
18021.2,9483.950800000006
18023.2,9474.093657142863
18025.2,9509.80794285715
18027.2,9543.093657142863
18029.2,9532.950800000006
18031.18,9494.522228571434
18033.15,9472.23651428572
18035.13,9483.093657142863
18037.1,9499.80794285715
18039.1,9489.80794285715
18041.1,9453.950800000006
18043.1,9421.093657142863
18045.1,9413.80794285715
18047.1,9424.66508571429
18049.1,9425.093657142863
18051.1,9402.093657142863
18053.1,9377.379371428578
18055.1,9381.093657142863
18057.1,9411.093657142863
18059.1,9434.66508571429
18061.1,9430.807942857147
18063.1,9415.522228571434
18065.1,9417.807942857147
18067.1,9443.23651428572
18069.1,9469.80794285715
18071.1,9476.093657142861
18073.1,9467.950800000006
18075.1,9476.093657142863
18077.1,9521.379371428577
18079.1,9582.950800000006
18081.1,9613.950800000004
18083.1,9598.379371428577
18085.1,9575.522228571434
18087.1,9591.665085714292
18089.1,9635.379371428577
18091.1,9647.66508571429
18093.1,9601.66508571429
18095.1,9544.23651428572
18097.1,9532.950800000006
18099.1,9557.093657142863
18101.1,9557.379371428578
18103.1,9512.23651428572
18105.1,9463.23651428572
18107.1,9455.379371428577
18109.1,9482.950800000006
18111.07,9500.950800000006
18113.05,9479.950800000006
18115.03,9441.522228571434
18117.0,9429.807942857147
18119.0,9452.522228571434
18121.0,9470.80794285715
18123.0,9452.807942857147
18125.0,9413.379371428577
18127.0,9390.093657142863
18129.0,9396.522228571434
18131.0,9413.665085714292
18133.0,9416.093657142863
18135.0,9400.522228571434
18137.0,9390.379371428577
18139.0,9412.66508571429
18141.0,9461.23651428572
18143.0,9492.522228571434
18145.0,9471.379371428578
18147.0,9419.950800000004
18149.0,9396.66508571429
18151.0,9420.66508571429
18153.0,9444.80794285715
18155.0,9423.093657142863
18157.0,9378.379371428578
18159.0,9371.66508571429
18161.0,9416.950800000006
18163.0,9461.80794285715
18165.0,9457.522228571434
18167.0,9419.23651428572
18169.0,9402.093657142863
18171.0,9429.379371428577
18173.0,9466.665085714292
18175.0,9468.80794285715
18177.0,9435.950800000006
18179.0,9406.522228571435
18181.0,9405.66508571429
18183.0,9416.950800000004
18185.0,9409.093657142863
18187.0,9377.950800000006
18189.0,9354.23651428572
18190.97,9366.807942857147
18192.95,9407.379371428577
18194.93,9438.80794285715
18196.9,9438.66508571429
18198.9,9421.093657142861
18200.9,9414.236514285722
18202.9,9425.665085714292
18204.9,9435.23651428572
18206.9,9417.379371428577
18208.9,9375.950800000006
18210.9,9348.23651428572
18212.9,9363.093657142863
18214.9,9399.093657142863
18216.9,9408.379371428577
18218.9,9379.379371428577
18220.9,9352.379371428577
18222.9,9365.379371428577
18224.9,9403.950800000006
18226.9,9416.093657142863
18228.9,9378.093657142863
18230.9,9329.950800000006
18232.9,9328.093657142863
18234.9,9368.23651428572
18236.9,9388.66508571429
18238.9,9358.379371428577
18240.9,9322.093657142863
18242.9,9337.093657142863
18244.9,9393.66508571429
18246.9,9429.66508571429
18248.9,9413.950800000004
18250.9,9383.093657142863
18252.9,9386.522228571434
18254.9,9420.950800000006
18256.9,9441.950800000006
18258.9,9424.950800000006
18260.9,9387.522228571434
18262.9,9360.379371428577
18264.9,9358.23651428572
18266.9,9369.950800000004
18268.9,9369.807942857147
18270.88,9346.522228571434
18272.85,9323.23651428572
18274.82,9333.522228571434
18276.8,9376.379371428578
18278.8,9410.093657142863
18280.8,9397.665085714292
18282.8,9351.23651428572
18284.8,9319.950800000006
18286.8,9325.379371428577
18288.8,9327.522228571435
18290.8,9282.80794285715
18292.8,9214.522228571434
18294.8,9185.379371428577
18296.8,9209.950800000006
18298.8,9237.093657142863
18300.8,9222.66508571429
18302.8,9187.522228571434
18304.8,9183.950800000006
18306.8,9222.950800000006
18308.8,9262.950800000006
18310.8,9270.093657142863
18312.8,9259.950800000006
18314.8,9266.807942857147
18316.8,9296.522228571434
18318.8,9324.379371428577
18320.8,9326.093657142863
18322.8,9304.66508571429
18324.8,9288.379371428577
18326.8,9295.66508571429
18328.8,9312.093657142863
18330.8,9314.093657142863
18332.8,9301.23651428572
18334.8,9290.665085714292
18336.8,9297.379371428577
18338.8,9326.093657142861
18340.8,9361.66508571429
18342.8,9372.23651428572
18344.8,9347.807942857147
18346.8,9323.950800000004
18348.8,9336.950800000004
18350.78,9370.522228571434
18352.75,9378.23651428572
18354.72,9353.522228571435
18356.7,9341.807942857147
18358.7,9377.379371428577
18360.7,9434.522228571434
18362.7,9464.093657142863
18364.7,9456.80794285715
18366.7,9449.522228571434
18368.7,9473.66508571429
18370.7,9517.950800000006
18372.7,9543.379371428577
18374.7,9527.950800000006
18376.7,9486.950800000006
18378.7,9447.522228571434
18380.7,9411.66508571429
18382.7,9357.236514285718
18384.7,9274.66508571429
18386.7,9186.66508571429
18388.7,9129.23651428572
18390.7,9117.23651428572
18392.7,9133.379371428577
18394.7,9144.522228571434
18396.7,9130.807942857147
18398.7,9104.522228571434
18400.7,9100.522228571434
18402.7,9128.80794285715
18404.7,9147.093657142861
18406.7,9117.23651428572
18408.7,9074.522228571435
18410.7,9080.23651428572
18412.7,9123.379371428577
18414.7,9142.950800000006
18416.7,9124.950800000006
18418.7,9105.093657142863
18420.7,9099.522228571434
18422.7,9097.23651428572
18424.7,9091.665085714292
18426.7,9077.236514285722
18428.7,9039.807942857147
18430.68,8980.379371428578
18432.65,8925.665085714292
18434.63,8892.379371428578
18436.6,8859.950800000006
18438.6,8809.23651428572
18440.6,8763.379371428577
18442.6,8754.093657142863
18444.6,8782.23651428572
18446.6,8852.522228571434
18448.6,8993.093657142861
18450.6,9208.522228571434
18452.6,9476.522228571435
18454.6,9807.80794285715
18456.6,10228.379371428578
18458.6,10697.23651428572
18460.6,11122.093657142863
18462.6,11458.379371428577
18464.6,11720.665085714292
18466.6,11898.379371428577
18468.6,11924.66508571429
18470.6,11748.379371428575
18472.6,11397.093657142861
18474.6,10945.80794285715
18476.6,10455.522228571434
18478.6,9963.950800000006
18480.6,9509.80794285715
18482.6,9138.379371428577
18484.6,8889.093657142863
18486.6,8781.23651428572
18488.6,8797.807942857147
18490.6,8880.950800000006
18492.6,8964.950800000006
18494.6,9027.379371428577
18496.6,9088.950800000006
18498.6,9156.379371428577
18500.6,9194.950800000006
18502.6,9176.379371428577
18504.6,9120.80794285715
18506.6,9069.66508571429
18508.6,9038.522228571434
18510.57,9015.23651428572
18512.55,8983.522228571435
18514.53,8937.950800000006
18516.5,8891.379371428578
18518.5,8867.807942857147
18520.5,8874.80794285715
18522.5,8886.665085714292
18524.5,8871.950800000006
18526.5,8837.522228571434
18528.5,8827.379371428577
18530.5,8863.950800000006
18532.5,8911.23651428572
18534.5,8919.23651428572
18536.5,8892.665085714292
18538.5,8880.379371428577
18540.5,8900.950800000006
18542.5,8916.950800000004
18544.5,8889.379371428577
18546.5,8829.379371428577
18548.5,8784.379371428577
18550.5,8784.80794285715
18552.5,8813.80794285715
18554.5,8831.950800000006
18556.5,8828.23651428572
18558.5,8831.66508571429
18560.5,8866.379371428577
18562.5,8914.66508571429
18564.5,8937.379371428577
18566.5,8921.093657142861
18568.5,8891.379371428577
18570.5,8882.522228571434
18572.5,8901.23651428572
18574.5,8923.950800000006
18576.5,8927.66508571429
18578.5,8916.379371428578
18580.5,8912.23651428572
18582.5,8928.522228571434
18584.5,8951.23651428572
18586.5,8949.093657142863
18588.5,8910.522228571435
18590.47,8868.379371428577
18592.45,8864.950800000006
18594.43,8892.950800000004
18596.4,8902.66508571429
18598.4,8871.80794285715
18600.4,8836.522228571434
18602.4,8840.23651428572
18604.4,8875.093657142863
18606.4,8893.80794285715
18608.4,8873.093657142863
18610.4,8843.665085714292
18612.4,8846.665085714292
18614.4,8878.522228571434
18616.4,8901.665085714292
18618.4,8900.23651428572
18620.4,8896.522228571434
18622.4,8918.950800000006
18624.4,8970.23651428572
18626.4,9024.522228571434
18628.4,9052.522228571434
18630.4,9055.522228571434
18632.4,9064.807942857147
18634.4,9100.522228571434
18636.4,9142.522228571434
18638.4,9156.950800000006
18640.4,9142.093657142863
18642.4,9130.950800000006
18644.4,9150.522228571434
18646.4,9188.23651428572
18648.4,9207.379371428575
18650.4,9196.950800000004
18652.4,9189.950800000004
18654.4,9222.23651428572
18656.4,9285.66508571429
18658.4,9338.093657142861
18660.4,9353.093657142861
18662.4,9347.23651428572
18664.4,9355.807942857147
18666.4,9387.950800000004
18668.4,9412.807942857147
18670.38,9399.379371428577
18672.35,9362.379371428577
18674.32,9351.522228571434
18676.3,9390.093657142863
18678.3,9442.093657142863
18680.3,9453.66508571429
18682.3,9419.950800000004
18684.3,9391.379371428578
18686.3,9405.807942857147
18688.3,9435.80794285715
18690.3,9429.23651428572
18692.3,9384.950800000006
18694.3,9351.950800000006
18696.3,9357.950800000006
18698.3,9376.093657142863
18700.3,9367.665085714292
18702.3,9329.522228571434
18704.3,9289.379371428575
18706.3,9271.66508571429
18708.3,9277.23651428572
18710.3,9291.23651428572
18712.3,9301.522228571434
18714.3,9308.66508571429
18716.3,9323.522228571434
18718.3,9354.23651428572
18720.3,9387.379371428577
18722.3,9390.66508571429
18724.3,9352.66508571429
18726.3,9307.66508571429
18728.3,9293.23651428572
18730.3,9293.66508571429
18732.3,9259.807942857147
18734.3,9182.379371428577
18736.3,9109.093657142863
18738.3,9079.23651428572
18740.3,9071.23651428572
18742.3,9035.80794285715
18744.3,8965.093657142863
18746.3,8904.093657142863
18748.3,8891.522228571434
18750.28,8909.379371428577
18752.25,8906.522228571435
18754.22,8863.379371428577
18756.2,8812.950800000006
18758.2,8794.093657142863
18760.2,8801.522228571435
18762.2,8796.093657142863
18764.2,8755.665085714292
18766.2,8700.23651428572
18768.2,8662.665085714292
18770.2,8647.522228571434
18772.2,8628.093657142863
18774.2,8578.807942857147
18776.2,8506.093657142863
18778.2,8446.522228571434
18780.2,8427.522228571434
18782.2,8433.23651428572
18784.2,8420.522228571434
18786.2,8374.23651428572
18788.2,8330.379371428577
18790.2,8327.379371428577
18792.2,8351.950800000004
18794.2,8356.093657142861
18796.2,8319.66508571429
18798.2,8274.23651428572
18800.2,8261.379371428577
18802.2,8281.093657142863
18804.2,8290.665085714292
18806.2,8257.950800000006
18808.2,8207.093657142863
18810.2,8193.80794285715
18812.2,8234.093657142863
18814.2,8282.66508571429
18816.2,8292.665085714292
18818.2,8275.950800000006
18820.2,8280.80794285715
18822.2,8323.23651428572
18824.2,8362.23651428572
18826.2,8351.950800000006
18828.2,8302.522228571434
18830.18,8266.80794285715
18832.15,8270.23651428572
18834.13,8284.522228571434
18836.1,8276.379371428577
18838.1,8251.23651428572
18840.1,8236.80794285715
18842.1,8244.522228571434
18844.1,8261.950800000006
18846.1,8268.950800000006
18848.1,8253.379371428577
18850.1,8220.23651428572
18852.1,8191.23651428572
18854.1,8181.807942857147
18856.1,8179.522228571434
